0.0146,0.0024,0.0024,0.0024,0.0024,0.0024,0.0024,0.0293,0.0024,0.0024
0.022,0.0024,0.0024,0.0024,0.0024,0.0024,0.0024,0.0269,0.0024,0.0024
0.0342,0.0024,0.0024,0.0024,0.0024,0.0024,0.0024,0.0195,0.0024,0.0024
0.0195,0.0024,0.0024,0.0024,0.0024,0.0024,0.0024,0.0293,0.0024,0.0024
0.0439,0.0024,0.0024,0.0024,0.0024,0.0024,0.0024,0.0293,0.0024,0.0024
0.0024,0.0024,0.0024,0.0024,0.0024,0.0024,0.0122,0.0244,0.0024,0.0122
0.0073,0.0024,0.0024,0.0024,0.0024,0.0024,0.0146,0.0171,0.0024,0.0122
0.0122,0.0024,0.0024,0.0024,0.0024,0.0024,0.0293,0.0391,0.0024,0.022
0.0024,0.0024,0.0024,0.0024,0.0024,0.0024,0.0049,0.0269,0.0024,0.0024
0.0049,0.0024,0.0024,0.0024,0.0024,0.0024,0.0195,0.0269,0.0098,0.0024
0.0024,0.0024,0.0977,0.0024,0.0024,0.0024,0.0269,0.0366,0.0879,0.0049
0.0024,0.0024,0.0024,0.0024,0.0024,0.0024,0.0122,0.0269,0.0024,0.0024
0.0024,0.0024,0.0024,0.0024,0.0024,0.0024,0.0757,0.0317,0.0024,0.0024
0.0024,0.0024,0.0024,0.0024,0.0024,0.0024,0.0146,0.0293,0.0024,0.0098
0.0049,0.0024,0.0024,0.0024,0.0024,0.0024,0.0317,0.0366,0.0122,0.0049
0.0024,0.0024,0.0024,0.0024,0.0024,0.0024,0.0317,0.0244,0.0024,0.0049
0.0024,0.0024,0.0024,0.0024,0.0024,0.0024,0.0269,0.0415,0.0024,0.0171
0.0049,0.0024,0.0024,0.0024,0.0024,0.0024,0.0024,0.0122,0.0024,0.0024
0.0024,0.0024,0.0024,0.0024,0.0024,0.0024,0.0024,0.0244,0.0049,0.0024
0.0049,0.0024,0.0024,0.0024,0.0049,0.0024,0.0024,0.0195,0.0024,0.0024
0.0024,0.0024,0.0024,0.0024,0.0024,0.0024,0.0195,0.0366,0.0024,0.0024
0.0098,0.0024,0.0024,0.0024,0.0024,0.0024,0.0024,0.0635,0.0024,0.0098
0.0073,0.0024,0.0024,0.0024,0.0024,0.0024,0.0317,0.0757,0.0024,0.0049
0.0024,0.0024,0.0024,0.0024,0.0024,0.0024,0.0195,0.0488,0.0024,0.0122
0.0098,0.0024,0.0024,0.0024,0.0024,0.0024,0.0513,0.0757,0.0024,0.0098
0.0098,0.0024,0.0024,0.0024,0.0024,0.0024,0.0024,0.0586,0.0024,0.0098
0.0024,0.0024,0.0024,0.0024,0.0024,0.0024,0.0317,0.0317,0.0024,0.0171
0.0049,0.0024,0.0024,0.0024,0.0024,0.0024,0.0244,0.0366,0.0024,0.0146
0.0024,0.0024,0.0024,0.0024,0.0024,0.0024,0.0439,0.0391,0.0098,0.0098
0.0098,0.0024,0.0024,0.0024,0.0024,0.0024,0.3345,0.1099,0.0049,0.0439
0.0146,0.0024,0.0024,0.0024,0.0024,0.0024,0.3101,0.1123,0.0024,0.0244
0.0024,0.0024,0.0024,0.0024,0.0024,0.0024,0.3271,0.0732,0.0024,0.0391
0.0024,0.0024,0.0024,0.0024,0.0024,0.0024,0.3223,0.1025,0.0024,0.0391
0.0024,0.0024,0.0024,0.0024,0.0024,0.0024,0.0024,0.0586,0.0024,0.0269
0.0024,0.0024,0.0024,0.0024,0.0024,0.0024,0.0098,0.0684,0.0024,0.0122
0.0073,0.0024,0.0024,0.0024,0.0024,0.0024,0.0049,0.0464,0.0708,0.0073
0.0098,0.0024,0.0024,0.0024,0.0024,0.0024,0.1611,0.0342,0.0024,0.0366
0.0024,0.0024,0.0024,0.0024,0.0024,0.0024,0.0366,0.083,0.0024,0.0684
0.0024,0.0024,0.0024,0.0024,0.0024,0.0024,0.0146,0.0415,0.0024,0.022
0.0024,0.0024,0.0024,0.0024,0.0024,0.0024,0.0317,0.0757,0.0024,0.0635
0.0024,0.0024,0.0024,0.0024,0.0024,0.0024,0.0024,0.0439,0.0024,0.0366
0.0024,0.0024,0.0024,0.0024,0.0024,0.0024,0.083,0.0415,0.0024,0.0244
0.0024,0.0024,0.0024,0.0024,0.0024,0.0024,0.1318,0.0513,0.0024,0.0391
0.0024,0.0024,0.0024,0.0024,0.0024,0.0024,0.1147,0.0732,0.0024,0.0464
0.0024,0.0024,0.0024,0.0024,0.0024,0.0024,0.0635,0.0635,0.0024,0.0317
0.0024,0.0024,0.0024,0.0024,0.0024,0.0024,0.3516,0.1318,0.0024,0.0708
0.0024,0.0024,0.0024,0.0024,0.0024,0.0024,0.0073,0.0146,0.0024,0.0098
0.0024,0.0024,0.0024,0.0024,0.0024,0.0024,0.0684,0.0244,0.0024,0.022
0.0024,0.0024,0.0024,0.0024,0.0024,0.0024,0.0415,0.0415,0.0024,0.0244
0.0024,0.0024,0.0024,0.0024,0.0024,0.0024,0.0586,0.0342,0.0024,0.0342
0.0317,0.0024,0.0024,0.0024,0.0024,0.0024,0.0122,0.0073,0.0024,0.0024
0.0049,0.0024,0.0024,0.0024,0.0024,0.0024,0.0122,0.0146,0.0024,0.0098
0.0122,0.0024,0.0024,0.0024,0.0024,0.0024,0.0024,0.0049,0.0024,0.0024
0.0024,0.0024,0.0024,0.0024,0.0024,0.0024,0.0562,0.0464,0.0024,0.0366
0.0024,0.0024,0.0024,0.0024,0.0024,0.0024,0.0952,0.1904,0.0024,0.0171
0.0024,0.0024,0.0049,0.0024,0.0024,0.0024,0.0635,0.0781,0.0024,0.0171
0.0146,0.0024,0.0024,0.0024,0.0024,0.0024,0.0244,0.0635,0.0024,0.0024
0.0049,0.0024,0.0024,0.0024,0.0024,0.0024,0.0122,0.0708,0.0024,0.0024
0.0195,0.0024,0.0024,0.0024,0.0024,0.0024,0.0659,0.0854,0.0024,0.0073
0.0024,0.0024,0.0024,0.0024,0.0024,0.0024,0.1343,0.0732,0.0024,0.0195
0.0024,0.0024,0.0024,0.0024,0.0024,0.0024,0.0562,0.0513,0.0024,0.0049
0.0073,0.0024,0.0024,0.0024,0.0024,0.0024,0.0195,0.0488,0.0024,0.0024
0.0049,0.0024,0.0024,0.0024,0.0024,0.0024,0.0024,0.0562,0.0024,0.0098
0.0171,0.0024,0.0024,0.0024,0.0024,0.0024,0.0073,0.0903,0.0024,0.0415
0.0024,0.0024,0.0024,0.0024,0.0024,0.0024,0.0073,0.1074,0.0024,0.0562
0.0049,0.0024,0.0024,0.0024,0.0024,0.0024,0.0269,0.1025,0.0024,0.0415
0.0122,0.0024,0.0024,0.0024,0.0024,0.0024,0.0024,0.1196,0.0024,0.0342
0.0244,0.0024,0.0024,0.0024,0.0024,0.0024,0.0293,0.1489,0.0024,0.0317
0.21,0.0024,0.0024,0.0024,0.0024,0.0024,0.0195,0.3442,0.0024,0.0269
0.0195,0.0024,0.0049,0.0024,0.0024,0.0024,0.0269,0.144,0.0024,0.0537
0.0757,0.0024,0.0024,0.0024,0.0024,0.0024,0.0366,0.166,0.0024,0.0488
0.2075,0.0024,0.2466,0.0024,0.0024,0.0024,0.0488,0.2539,0.0537,0.0464
0.0195,0.0024,0.0024,0.0024,0.0024,0.0024,0.0806,0.1538,0.0024,0.0562
0.0024,0.0024,0.0024,0.0024,0.0024,0.0024,0.0293,0.061,0.0024,0.0391
0.0024,0.0024,0.0024,0.0024,0.0024,0.0024,0.0854,0.1294,0.0024,0.0391
0.0024,0.0024,0.0024,0.0024,0.0024,0.0024,0.0024,0.0635,0.0024,0.0732
0.0024,0.0024,0.0024,0.0024,0.0024,0.0024,0.0391,0.1123,0.0024,0.0269
0.0415,0.0024,0.0024,0.0024,0.0024,0.0024,0.0464,0.1514,0.0024,0.0488
0.0049,0.0024,0.0024,0.0024,0.0049,0.0024,0.0464,0.1416,0.0024,0.0513
0.0024,0.0024,0.0024,0.0024,0.0024,0.0024,0.0439,0.1318,0.0024,0.0269
0.0024,0.0024,0.0024,0.0024,0.0024,0.0024,0.0293,0.1221,0.0024,0.0415
0.1758,0.0024,0.0024,0.0024,0.0024,0.0024,0.0073,0.1221,0.0024,0.0244
0.0439,0.0024,0.0024,0.0024,0.0024,0.0024,0.0073,0.0977,0.0024,0.0195
0.1343,0.0024,0.0024,0.0024,0.0024,0.0024,0.0195,0.1318,0.0024,0.0171
0.0513,0.0024,0.0024,0.0024,0.0024,0.0024,0.0488,0.1294,0.0024,0.0342
0.0244,0.0024,0.0024,0.0024,0.0024,0.0024,0.0049,0.0684,0.0024,0.0464
0.0195,0.0024,0.0024,0.0024,0.0024,0.0024,0.0317,0.105,0.0024,0.0391
0.0049,0.0024,0.0024,0.0024,0.0024,0.0024,0.0024,0.0757,0.0024,0.0317
0.0098,0.0024,0.0024,0.0024,0.0024,0.0024,0.0317,0.1025,0.0024,0.0513
0.0024,0.0024,0.0024,0.0024,0.0024,0.0024,0.0024,0.0171,0.0024,0.0684
0.0073,0.0024,0.0024,0.0024,0.0024,0.0024,0.0024,0.0342,0.0024,0.0488
0.0146,0.0024,0.0024,0.0024,0.0024,0.0024,0.0171,0.083,0.0024,0.0635
0.0024,0.0024,0.0024,0.0024,0.0024,0.0024,0.0317,0.0781,0.0024,0.0562
0.0098,0.0024,0.0024,0.0024,0.0024,0.0024,0.0171,0.0659,0.0024,0.0488
0.0171,0.0024,0.0024,0.0024,0.0024,0.0024,0.0098,0.0806,0.0024,0.0488
0.0073,0.0024,0.0024,0.0024,0.0024,0.0024,0.0098,0.0977,0.0024,0.0537
0.0171,0.0024,0.0024,0.0024,0.0024,0.0024,0.0024,0.0391,0.0024,0.0342
0.0024,0.0024,0.0024,0.0024,0.0024,0.0024,0.0659,0.0586,0.0024,0.0562
0.0171,0.0024,0.0024,0.0024,0.0024,0.0024,0.0024,0.0146,0.0024,0.061
0.0195,0.0024,0.0024,0.0024,0.0024,0.0024,0.0024,0.0293,0.0024,0.061
0.0562,0.0024,0.0024,0.0024,0.0024,0.0024,0.0293,0.127,0.0024,0.0562
0.0049,0.0024,0.0024,0.0024,0.0024,0.0024,0.0195,0.0928,0.0024,0.0366
0.0024,0.0024,0.0024,0.0024,0.0024,0.0024,0.0366,0.0684,0.0024,0.0293
0.0635,0.0024,0.0024,0.0024,0.0024,0.0024,0.083,0.1367,0.0024,0.0439
0.0024,0.0024,0.0024,0.0024,0.0024,0.0024,0.0098,0.0854,0.0024,0.0513
0.0488,0.0024,0.1196,0.0806,0.0024,0.0024,0.0903,0.1465,0.0024,0.0513
0.0073,0.0024,0.0024,0.0024,0.0024,0.0024,0.0024,0.1074,0.0024,0.0293
0.0049,0.0024,0.0024,0.0024,0.0024,0.0024,0.0098,0.0708,0.0024,0.0342
0.0024,0.0024,0.0024,0.0024,0.0024,0.0024,0.0439,0.0854,0.0024,0.0317
0.0024,0.0024,0.0024,0.0024,0.0024,0.0024,0.0195,0.0879,0.0024,0.0293
0.0073,0.0024,0.0049,0.0024,0.0024,0.0024,0.0073,0.1099,0.0024,0.0293
0.0024,0.0024,0.0024,0.0024,0.0024,0.0024,0.0024,0.0928,0.0024,0.022
0.0024,0.0024,0.0024,0.0024,0.0024,0.0024,0.0415,0.1099,0.0024,0.0269
0.0024,0.0024,0.0024,0.0024,0.0024,0.0024,0.0171,0.083,0.0024,0.0317
0.0073,0.0024,0.0024,0.0024,0.0024,0.0024,0.022,0.1147,0.0024,0.022
0.0024,0.0024,0.0391,0.0977,0.0537,0.0513,0.0488,0.0586,0.0073,0.061
0.022,0.0024,0.0073,0.0513,0.0024,0.0024,0.0781,0.1172,0.0024,0.061
0.0122,0.0024,0.0024,0.0024,0.0024,0.0024,0.0073,0.0342,0.0024,0.0537
0.022,0.0024,0.0024,0.0024,0.0024,0.0024,0.0049,0.0342,0.0244,0.0415
0.0024,0.0024,0.0024,0.0024,0.0024,0.0024,0.0024,0.0024,0.022,0.0464
0.0146,0.0024,0.0024,0.0024,0.0024,0.0024,0.0024,0.0488,0.0146,0.0659
0.0244,0.0024,0.0049,0.0024,0.0024,0.0024,0.0049,0.0513,0.022,0.0562
0.0024,0.0024,0.0024,0.0024,0.0024,0.0024,0.0024,0.0024,0.0366,0.0635
0.0024,0.0024,0.0024,0.0024,0.0024,0.0024,0.0122,0.0195,0.0293,0.0684
0.0024,0.0146,0.0024,0.0024,0.0049,0.0024,0.0024,0.0171,0.0146,0.0439
0.0513,0.0024,0.0024,0.0024,0.0024,0.0024,0.0195,0.0806,0.0024,0.0659
0.061,0.0024,0.0024,0.0024,0.0024,0.0024,0.0024,0.0879,0.0024,0.0757
0.0806,0.0024,0.0024,0.0024,0.0024,0.0024,0.0073,0.1172,0.0024,0.0659
0.0635,0.0024,0.0024,0.0024,0.0024,0.0024,0.022,0.1025,0.0024,0.0488
0.0024,0.0024,0.0024,0.0024,0.0024,0.0024,0.0122,0.061,0.0024,0.0391
0.0391,0.0024,0.0024,0.0024,0.0024,0.0024,0.0024,0.1074,0.0024,0.0488
0.0024,0.0024,0.0024,0.0024,0.0024,0.0024,0.0024,0.1294,0.0024,0.0464
0.0049,0.0024,0.0024,0.0049,0.0024,0.0024,0.0024,0.0464,0.0122,0.0708
0.0073,0.0024,0.0024,0.0024,0.0024,0.0024,0.0122,0.083,0.0024,0.0488
0.0024,0.0024,0.0024,0.0024,0.0024,0.0024,0.0024,0.0464,0.0098,0.0415
0.1001,0.0024,0.0024,0.0024,0.0024,0.0024,0.0146,0.1221,0.1025,0.0537
0.0073,0.0024,0.0024,0.0024,0.0024,0.0024,0.0073,0.0928,0.0854,0.0415
0.0342,0.0024,0.0024,0.0024,0.0024,0.0024,0.0464,0.1367,0.0903,0.0635
0.0293,0.0024,0.0024,0.0024,0.0024,0.0024,0.0146,0.1221,0.1074,0.0488
0.127,0.0024,0.0024,0.0024,0.0024,0.0024,0.0098,0.1196,0.1001,0.0488
0.0757,0.0024,0.0024,0.0024,0.0024,0.0024,0.0098,0.105,0.105,0.0439
0.0854,0.0024,0.0024,0.0024,0.0024,0.0024,0.0073,0.1099,0.1123,0.0342
0.1221,0.0024,0.0024,0.0024,0.0024,0.0024,0.0415,0.1025,0.1685,0.0562
0.0024,0.0024,0.0024,0.0024,0.0024,0.0024,0.0024,0.0659,0.0732,0.0342
0.0146,0.0024,0.0024,0.0024,0.0024,0.0024,0.0342,0.1123,0.1196,0.0366
0.0024,0.0024,0.0024,0.0024,0.0024,0.0024,0.0049,0.0537,0.0903,0.0415
0.0024,0.0024,0.0024,0.0024,0.0024,0.0024,0.0024,0.0415,0.1123,0.0439
0.0024,0.0024,0.0024,0.0024,0.0024,0.0024,0.0146,0.0586,0.1123,0.0098
0.0024,0.0024,0.0024,0.0024,0.0024,0.0024,0.0098,0.0635,0.1147,0.0024
0.0024,0.0024,0.0024,0.0024,0.0024,0.0024,0.0146,0.0781,0.1123,0.0122
0.0024,0.0024,0.0024,0.0122,0.0024,0.0024,0.0366,0.0708,0.4272,0.0781
0.2222,0.0269,0.1953,0.0024,0.0049,0.0024,0.0415,0.2881,0.1221,0.0024
0.0024,0.0024,0.0049,0.0024,0.0024,0.0024,0.0269,0.0928,0.3003,0.0024
0.0024,0.0024,0.0024,0.0024,0.0024,0.0024,0.0684,0.0366,0.0806,0.0122
0.0024,0.0024,0.0024,0.0024,0.0024,0.0024,0.0464,0.0195,0.0806,0.0098
0.0024,0.0024,0.0024,0.0024,0.0024,0.0024,0.0244,0.1074,0.105,0.0122
0.0024,0.0024,0.0024,0.0024,0.0024,0.0024,0.1587,0.127,0.1465,0.0122
0.0024,0.0024,0.0024,0.0024,0.0024,0.0024,0.1489,0.1147,0.1416,0.0073
0.0024,0.0024,0.0024,0.0024,0.0024,0.0024,0.0439,0.1318,0.1392,0.0317
0.0024,0.0024,0.0024,0.0024,0.0024,0.0024,0.0562,0.0757,0.1416,0.0073
0.0024,0.0024,0.0024,0.0024,0.0024,0.0024,0.0244,0.0366,0.1099,0.0098
0.0024,0.0024,0.0024,0.0024,0.0024,0.0024,0.0342,0.1001,0.1025,0.0024
0.0024,0.0024,0.0024,0.0024,0.0024,0.0024,0.0415,0.144,0.0171,0.0049
0.0122,0.0024,0.0024,0.0024,0.0024,0.0024,0.0537,0.2051,0.0073,0.0024
0.0195,0.0024,0.0024,0.0024,0.0024,0.0024,0.1099,0.1123,0.1123,0.0122
0.0464,0.0024,0.0024,0.0024,0.0024,0.0024,0.0269,0.1147,0.7324,0.0024
0.0122,0.0024,0.0024,0.0024,0.0024,0.0024,0.022,0.0977,0.0488,0.0024
0.0024,0.0024,0.0024,0.0024,0.0024,0.0024,0.0171,0.0903,0.0635,0.0024
0.0024,0.0024,0.0024,0.0024,0.0049,0.0024,0.0195,0.1245,0.0024,0.0024
0.0293,0.0024,0.0171,0.0024,0.0024,0.0024,0.2051,0.2124,0.6445,0.3564
0.0049,0.0024,0.0049,0.0024,0.0024,0.0024,0.0244,0.0854,0.0439,0.0024
0.0024,0.0024,0.0024,0.0024,0.0024,0.0024,0.0293,0.0684,0.0269,0.0024
0.0122,0.0024,0.0049,0.0024,0.0024,0.0024,0.0024,0.0977,0.105,0.0024
0.0098,0.0024,0.0024,0.0024,0.0024,0.0024,0.0024,0.0903,0.1196,0.0146
0.0195,0.0024,0.0024,0.0024,0.0024,0.0024,0.0708,0.1489,0.4102,0.0024
0.0024,0.0024,0.0024,0.0024,0.0024,0.0024,0.0415,0.0781,0.0952,0.0073
0.0024,0.0024,0.0024,0.0024,0.0024,0.0024,0.0366,0.0464,0.083,0.0269
0.0024,0.0024,0.0024,0.0024,0.0024,0.0024,0.0024,0.1001,0.1147,0.0366
0.0854,0.0024,0.0024,0.0024,0.0049,0.0317,0.2222,0.3784,0.1367,0.0293
0.0024,0.0024,0.0024,0.0024,0.0024,0.0024,0.1392,0.1685,0.1587,0.0562
0.0024,0.0024,0.0024,0.0024,0.0024,0.0024,0.0732,0.1196,0.1074,0.0146
0.0146,0.0024,0.0024,0.0024,0.0024,0.0024,0.1563,0.2588,0.0024,0.0122
0.0171,0.0024,0.0024,0.0024,0.0024,0.0024,0.0171,0.1733,0.0024,0.0098
0.022,0.0024,0.0024,0.0024,0.0024,0.0024,0.0244,0.144,0.0024,0.0049
0.1172,0.0024,0.0024,0.0024,0.0024,0.0024,0.0049,0.0903,0.0732,0.0024
0.52,0.1831,0.5054,0.0562,0.0024,0.0049,0.0488,0.271,0.1782,0.0049
0.0073,0.0024,0.0024,0.0024,0.0024,0.0024,0.0684,0.376,0.0586,0.0024
0.3149,0.0293,0.0122,0.0903,0.0024,0.0024,0.0073,0.2686,0.127,0.0024
0.0171,0.0024,0.0024,0.127,0.0024,0.0024,0.0195,0.0366,0.0879,0.0073
0.1172,0.0024,0.0024,0.0024,0.0024,0.0024,0.0439,0.0366,0.0342,0.0024
0.0342,0.0024,0.0024,0.0024,0.0024,0.0024,0.0024,0.1758,0.2661,0.1294
0.1831,0.0024,0.0024,0.0024,0.0024,0.0024,0.0024,0.1489,0.0757,0.0269
0.1538,0.0024,0.0024,0.0024,0.0024,0.0024,0.0269,0.1343,0.1172,0.0024
0.0024,0.0024,0.0024,0.0024,0.0293,0.0024,0.144,0.127,0.144,0.0244
0.0024,0.0024,0.0024,0.0024,0.0024,0.0024,0.0024,0.0659,0.1367,0.0024
0.0952,0.0024,0.0024,0.0024,0.0024,0.0024,0.0024,0.083,0.1392,0.0024
0.0488,0.0024,0.0024,0.0024,0.0024,0.0024,0.0024,0.0342,0.0024,0.0024
0.061,0.0024,0.0024,0.0024,0.0024,0.0024,0.0024,0.0488,0.0024,0.0122
0.0024,0.0024,0.0024,0.0024,0.0024,0.0024,0.0171,0.0269,0.0024,0.0171
0.0024,0.0024,0.0024,0.0024,0.0024,0.0024,0.0537,0.0317,0.0024,0.0171
0.0049,0.0024,0.0806,0.0024,0.0024,0.0024,0.0635,0.0269,0.1416,0.0122
0.0024,0.0024,0.0024,0.0024,0.0024,0.0024,0.0195,0.0391,0.0024,0.0073
0.0024,0.0024,0.0171,0.0024,0.0024,0.0024,0.0049,0.0439,0.0732,0.0024
0.0024,0.0024,0.0024,0.0024,0.0024,0.0024,0.0342,0.0757,0.0024,0.0244
0.0024,0.0024,0.0024,0.0024,0.0024,0.0024,0.0317,0.0757,0.0024,0.0146
0.0024,0.0024,0.0024,0.0024,0.0049,0.0024,0.0024,0.0146,0.0024,0.0098
0.0024,0.0024,0.0024,0.0024,0.0024,0.0024,0.0073,0.0342,0.0024,0.0195
0.0024,0.0024,0.0024,0.0024,0.0024,0.0024,0.0513,0.0439,0.0024,0.0146
0.0024,0.0024,0.0049,0.0024,0.0024,0.0024,0.0024,0.0342,0.0024,0.0195
0.0171,0.0024,0.0024,0.0024,0.0024,0.0024,0.0049,0.0684,0.0024,0.0073
0.0024,0.0024,0.0122,0.0146,0.0024,0.0024,0.2563,0.0952,0.0024,0.0122
0.0049,0.0024,0.0024,0.0024,0.0024,0.0024,0.1758,0.0781,0.0024,0.022
0.0073,0.0024,0.0024,0.0024,0.0024,0.0024,0.0928,0.0708,0.0024,0.0269
0.0024,0.0024,0.0024,0.0024,0.0049,0.0024,0.0586,0.0586,0.0024,0.0586
0.0024,0.0024,0.0024,0.0024,0.0049,0.0024,0.0146,0.0684,0.0024,0.0464
0.0024,0.0024,0.0024,0.0024,0.0024,0.0024,0.1416,0.0586,0.0024,0.0732
0.1147,0.0024,0.0024,0.0024,0.0024,0.0098,0.459,0.2783,0.0024,0.0757
0.0024,0.0024,0.0024,0.0024,0.0024,0.0024,0.1172,0.1196,0.0024,0.0439
0.0488,0.0024,0.0024,0.0024,0.0024,0.0024,0.1123,0.1489,0.0024,0.0317
0.0024,0.0024,0.0024,0.0024,0.0024,0.0024,0.0757,0.0464,0.0024,0.0562
0.0049,0.0024,0.0024,0.0024,0.0024,0.0024,0.0659,0.0635,0.0024,0.0732
0.0098,0.0024,0.0098,0.0024,0.0024,0.0024,0.1147,0.1221,0.0122,0.0513
0.1514,0.0024,0.0024,0.0024,0.0024,0.0024,0.0366,0.1709,0.0024,0.0488
0.0488,0.0024,0.0024,0.0024,0.0024,0.0024,0.0073,0.1978,0.0024,0.0513
0.0024,0.0024,0.0024,0.0024,0.0049,0.0024,0.0049,0.0781,0.0098,0.0684
0.0098,0.0024,0.0024,0.0024,0.0024,0.0024,0.0024,0.0781,0.0024,0.0366
0.0171,0.0024,0.0024,0.0024,0.0024,0.0024,0.0586,0.1709,0.0024,0.0439
0.0024,0.0024,0.0024,0.0024,0.0024,0.0024,0.0024,0.1147,0.0024,0.0439
0.0342,0.0024,0.0024,0.0024,0.0024,0.0024,0.0122,0.1367,0.0024,0.0391
0.0171,0.0024,0.0024,0.0024,0.0024,0.0024,0.0439,0.1392,0.0024,0.0366
0.0024,0.0024,0.0024,0.0024,0.0024,0.0024,0.0342,0.1099,0.0024,0.0562
0.0024,0.0024,0.0024,0.0024,0.0024,0.0024,0.0415,0.0757,0.0024,0.0122
0.0049,0.0024,0.0024,0.0024,0.0024,0.0024,0.0269,0.127,0.0024,0.0244
0.0024,0.0024,0.0049,0.0024,0.0024,0.0049,0.0464,0.1318,0.0024,0.0317
0.1074,0.0024,0.0562,0.0146,0.0098,0.0024,0.1367,0.2441,0.0098,0.0659
0.105,0.0024,0.0024,0.0024,0.0024,0.0024,0.0439,0.1514,0.0024,0.0464
0.0024,0.0024,0.0024,0.0024,0.0024,0.0024,0.0024,0.0073,0.0146,0.0659
0.0293,0.0024,0.0146,0.0024,0.0024,0.0024,0.0024,0.0415,0.0073,0.0439
0.0122,0.0024,0.0122,0.0024,0.0024,0.0024,0.0024,0.0513,0.0122,0.0464
0.0098,0.0024,0.0024,0.0024,0.0024,0.0024,0.0024,0.0366,0.0098,0.0488
0.0073,0.0024,0.0073,0.0024,0.0024,0.0024,0.0024,0.0562,0.0049,0.0586
0.0024,0.0024,0.0024,0.0024,0.0024,0.0024,0.022,0.061,0.0342,0.0757
0.0098,0.0024,0.0488,0.0024,0.0024,0.0024,0.0024,0.0366,0.0464,0.0635
0.0293,0.0024,0.0024,0.0024,0.0024,0.0024,0.0146,0.0684,0.0073,0.0659
0.0122,0.0024,0.0024,0.0024,0.0024,0.0024,0.0049,0.0854,0.0024,0.0464
0.1929,0.0024,0.0024,0.0024,0.0024,0.0024,0.0293,0.1538,0.0024,0.0488
0.0708,0.0024,0.0024,0.0024,0.0024,0.0024,0.0195,0.1025,0.0024,0.061
0.0269,0.0024,0.0024,0.0024,0.0024,0.0024,0.0146,0.1221,0.0024,0.0586
0.0024,0.0024,0.0024,0.0024,0.0049,0.0024,0.0024,0.1221,0.0024,0.0391
0.083,0.0024,0.0024,0.0024,0.0024,0.0024,0.0146,0.0854,0.0806,0.0391
0.0146,0.0024,0.0024,0.0024,0.0024,0.0024,0.0537,0.1392,0.1099,0.0439
0.0024,0.0024,0.0024,0.0024,0.0024,0.0024,0.0049,0.0757,0.1001,0.0562
0.0488,0.0024,0.0024,0.0024,0.0146,0.0024,0.0513,0.0757,0.0879,0.0439
0.0098,0.0024,0.0024,0.0024,0.0024,0.0024,0.0024,0.061,0.1172,0.0488
0.0024,0.0024,0.0024,0.0024,0.0024,0.0024,0.0098,0.1172,0.105,0.0488
0.0171,0.0024,0.0049,0.0024,0.0024,0.0024,0.0317,0.1367,0.0952,0.0513
0.0171,0.0024,0.0024,0.0024,0.0024,0.0024,0.0366,0.1514,0.1489,0.0537
0.0024,0.0024,0.0024,0.0024,0.0024,0.0024,0.0171,0.1074,0.1196,0.0024
0.0073,0.0024,0.0024,0.0024,0.0024,0.0024,0.0244,0.1221,0.1196,0.0024
0.0024,0.0024,0.0024,0.0024,0.0024,0.0024,0.0146,0.1147,0.1172,0.0073
0.1733,0.0488,0.1099,0.0024,0.0024,0.0024,0.0537,0.3101,0.1099,0.0073
0.0024,0.0024,0.0024,0.0024,0.0024,0.0024,0.0244,0.022,0.105,0.0024
0.0024,0.0024,0.0024,0.0024,0.0049,0.0024,0.0537,0.0757,0.1147,0.0024
0.0708,0.0024,0.0024,0.0024,0.0024,0.0024,0.0464,0.127,0.1318,0.0024
0.0024,0.0024,0.0024,0.0024,0.0024,0.0024,0.0073,0.0562,0.1245,0.0024
0.0024,0.0024,0.0024,0.0024,0.0024,0.0024,0.0073,0.1245,0.1123,0.1904
0.0024,0.0024,0.0024,0.0024,0.0195,0.0024,0.1416,0.0903,0.0806,0.0073
0.0024,0.0024,0.0024,0.0024,0.0171,0.0024,0.0024,0.0317,0.5054,0.1147
0.061,0.0024,0.0024,0.0024,0.0049,0.0024,0.0586,0.1758,0.0024,0.0024
0.0024,0.0024,0.0024,0.0024,0.0024,0.0024,0.0488,0.0732,0.0024,0.0024
0.022,0.0024,0.0024,0.0024,0.022,0.0171,0.0757,0.0757,0.0024,0.0024
0.0659,0.0024,0.0024,0.0024,0.0024,0.0024,0.0098,0.1294,0.0659,0.0024
0.0024,0.0024,0.0024,0.0024,0.0073,0.0024,0.0098,0.0537,0.0366,0.0024
0.0513,0.0024,0.0024,0.0024,0.0024,0.0024,0.0024,0.0757,0.0903,0.0024
0.0537,0.0024,0.0024,0.0024,0.0024,0.0024,0.0342,0.1074,0.1147,0.0024
0.0537,0.0024,0.0024,0.0024,0.0024,0.0024,0.0366,0.1514,0.1172,0.0024
0.0781,0.0024,0.0024,0.0024,0.0024,0.0024,0.0195,0.1245,0.1001,0.0024
0.0488,0.0024,0.0024,0.0024,0.0024,0.0024,0.0317,0.1172,0.0977,0.0024
0.0146,0.0024,0.0049,0.0024,0.0024,0.0024,0.0171,0.105,0.1294,0.0024
0.0415,0.0024,0.0024,0.0024,0.0024,0.0024,0.0342,0.1294,0.1099,0.0049
0.1953,0.0098,0.5859,0.0708,0.0024,0.0024,0.0122,0.188,0.2661,0.0659
0.0024,0.0024,0.0049,0.0024,0.0024,0.0024,0.0586,0.1685,0.1147,0.0024
0.0122,0.0024,0.0024,0.0024,0.0024,0.0024,0.0146,0.105,0.061,0.0024
0.0024,0.0024,0.0024,0.0024,0.0049,0.0024,0.0024,0.0781,0.022,0.0024
0.0122,0.0024,0.0024,0.0024,0.0024,0.0024,0.0366,0.1245,0.0073,0.0024
0.0171,0.0024,0.0049,0.0024,0.0049,0.0024,0.0806,0.1611,0.0464,0.0098
0.0195,0.0024,0.0024,0.0024,0.0024,0.0024,0.0562,0.1538,0.0146,0.0024
0.0439,0.0024,0.0879,0.083,0.0171,0.0098,0.0928,0.3223,0.1489,0.0024
0.0073,0.0024,0.0049,0.0024,0.0024,0.0024,0.0024,0.1514,0.1367,0.0024
0.1318,0.0024,0.0024,0.0049,0.0024,0.0024,0.0269,0.3198,0.1196,0.0024
0.1636,0.0024,0.0024,0.0806,0.0024,0.0024,0.0342,0.293,0.3345,0.0073
0.0024,0.0024,0.0024,0.0024,0.0024,0.0024,0.0024,0.1611,0.0977,0.0024
0.0171,0.0024,0.0024,0.0024,0.0024,0.0024,0.0024,0.1489,0.1099,0.0171
0.0073,0.0024,0.0024,0.0024,0.0024,0.0024,0.0024,0.144,0.0928,0.0293
0.0049,0.0024,0.0024,0.0024,0.0024,0.0024,0.0049,0.1392,0.1196,0.0293
0.0024,0.0024,0.0024,0.0024,0.0024,0.0024,0.0464,0.1343,0.2197,0.0024
0.0024,0.0024,0.0024,0.0024,0.0024,0.0024,0.0562,0.0903,0.1221,0.0024
0.0049,0.0024,0.0024,0.0024,0.0024,0.0024,0.0513,0.1196,0.1172,0.0073
0.0024,0.0024,0.0024,0.0024,0.0024,0.0024,0.0122,0.1294,0.083,0.0269
0.0024,0.0024,0.0024,0.0024,0.0024,0.0024,0.0244,0.1245,0.1099,0.0342
0.0024,0.0024,0.0024,0.0024,0.0024,0.0024,0.0049,0.0952,0.1172,0.0317
0.0073,0.0024,0.0024,0.0024,0.0024,0.0024,0.0024,0.2075,0.1172,0.0293
0.1343,0.0024,0.0684,0.105,0.0024,0.0024,0.2026,0.2441,0.0977,0.0171
0.0391,0.0024,0.0024,0.0024,0.0024,0.0024,0.0342,0.3174,0.0049,0.0098
0.0171,0.0024,0.0024,0.0024,0.0049,0.0024,0.0244,0.2246,0.0073,0.0146
0.0146,0.0024,0.0024,0.0024,0.0024,0.0024,0.0098,0.1904,0.0098,0.0122
0.0366,0.0024,0.0024,0.0024,0.0024,0.0024,0.0513,0.2417,0.0024,0.0171
0.0146,0.0024,0.0024,0.0024,0.0024,0.0024,0.0464,0.1782,0.0049,0.0244
0.4297,0.0049,0.0024,0.0024,0.0024,0.0024,0.0635,0.2002,0.6299,0.0537
0.5542,0.0146,0.0024,0.0024,0.0024,0.0024,0.0073,0.1611,0.0708,0.0415
0.127,0.0317,0.105,0.188,0.0024,0.0024,0.2344,0.2563,0.498,0.0415
0.1831,0.0415,0.0464,0.0024,0.0024,0.0024,0.1123,0.2832,0.1123,0.0024
0.0269,0.0024,0.0024,0.0024,0.0024,0.0024,0.0024,0.0586,0.061,0.0024
0.0757,0.0024,0.0024,0.0024,0.0024,0.0024,0.0366,0.0342,0.0195,0.0024
0.0757,0.0293,0.0024,0.0708,0.0024,0.0024,0.0098,0.2905,0.0659,0.0024
0.0024,0.0024,0.0024,0.0024,0.0024,0.0024,0.0024,0.0806,0.0806,0.0024
0.1538,0.0024,0.0024,0.0024,0.0024,0.0024,0.0024,0.1172,0.1318,0.0024
0.0049,0.0024,0.0024,0.0024,0.0024,0.0024,0.0244,0.0342,0.0146,0.0293
0.0024,0.0024,0.0513,0.0024,0.0024,0.0024,0.0024,0.0513,0.1025,0.0244
0.0024,0.0024,0.0024,0.0024,0.0024,0.0024,0.0024,0.0439,0.0439,0.0049
0.0024,0.0024,0.0024,0.0024,0.0024,0.0024,0.0049,0.0586,0.0098,0.0073
0.0024,0.0024,0.0024,0.0024,0.0024,0.0024,0.0342,0.0391,0.0049,0.0244
0.0024,0.0024,0.0024,0.0024,0.0024,0.0024,0.0073,0.0269,0.0073,0.0195
0.0024,0.0024,0.0952,0.0024,0.0024,0.0024,0.0269,0.0293,0.1099,0.0195
0.0146,0.0024,0.0024,0.0024,0.0024,0.0024,0.0415,0.0928,0.0024,0.022
0.0024,0.0024,0.0024,0.0024,0.0024,0.0024,0.2026,0.0952,0.0171,0.0122
0.0024,0.0024,0.0024,0.0024,0.0024,0.0024,0.2075,0.0757,0.0049,0.0122
0.0049,0.0024,0.0024,0.0024,0.0024,0.0024,0.3442,0.0977,0.0024,0.0146
0.0024,0.0024,0.0024,0.0024,0.0024,0.0024,0.2148,0.0806,0.0098,0.0049
0.0024,0.0024,0.0024,0.0024,0.0024,0.0024,0.1489,0.0708,0.0024,0.0439
0.0024,0.0024,0.0049,0.0024,0.0024,0.0024,0.332,0.1465,0.0024,0.0488
0.0024,0.0024,0.0024,0.0024,0.0024,0.0024,0.3662,0.0854,0.0024,0.061
0.0049,0.0024,0.0024,0.0024,0.0024,0.0024,0.2881,0.1001,0.0024,0.0635
0.0024,0.0024,0.0049,0.0024,0.0024,0.0024,0.0024,0.0684,0.0024,0.022
0.0024,0.0024,0.0049,0.0024,0.0024,0.0024,0.0317,0.0757,0.0024,0.0317
0.0024,0.0024,0.0049,0.0024,0.0024,0.0024,0.0146,0.0439,0.0024,0.0049
0.0024,0.0024,0.0024,0.0024,0.0024,0.0024,0.0049,0.0488,0.0024,0.0146
0.0073,0.0024,0.0049,0.0024,0.0024,0.0024,0.188,0.061,0.0024,0.1074
0.0024,0.0024,0.0024,0.0024,0.0024,0.0024,0.083,0.0732,0.0024,0.0488
0.0024,0.0024,0.0024,0.0024,0.0024,0.0024,0.1001,0.083,0.0024,0.0732
0.0024,0.0024,0.0024,0.0024,0.0024,0.0024,0.0659,0.0391,0.0024,0.0488
0.0024,0.0024,0.0024,0.0024,0.0024,0.0024,0.0464,0.0342,0.0024,0.0269
0.0024,0.0024,0.0024,0.0024,0.0024,0.0024,0.0928,0.0635,0.0024,0.0098
0.0024,0.0024,0.0024,0.0024,0.0024,0.0024,0.1123,0.0952,0.0024,0.0098
0.0439,0.0024,0.0024,0.0024,0.0024,0.0024,0.083,0.1099,0.0024,0.0342
0.1074,0.0024,0.0024,0.0024,0.0024,0.0024,0.0439,0.0708,0.0024,0.0073
0.0073,0.0024,0.0024,0.0024,0.0024,0.0024,0.0439,0.0684,0.0024,0.0024
0.0049,0.0024,0.0024,0.0024,0.0024,0.0024,0.0415,0.0562,0.0024,0.0049
0.0146,0.0024,0.0024,0.0024,0.0024,0.0024,0.0684,0.083,0.0024,0.0073
0.0024,0.0024,0.0024,0.0024,0.0024,0.0024,0.0244,0.0439,0.0024,0.0122
0.0024,0.0024,0.0049,0.0024,0.0024,0.0024,0.0928,0.0586,0.0024,0.0024
0.0024,0.0024,0.0024,0.0024,0.0024,0.0024,0.1099,0.0391,0.0024,0.0024
0.0024,0.0024,0.0024,0.0024,0.0024,0.0024,0.1099,0.0854,0.0024,0.022
0.0073,0.0024,0.0024,0.0024,0.0024,0.0024,0.1245,0.0659,0.0024,0.0098
0.0024,0.0024,0.0024,0.0024,0.0024,0.0024,0.0415,0.0488,0.0024,0.0195
0.0073,0.0024,0.0024,0.0024,0.0024,0.0024,0.0146,0.0415,0.0024,0.0049
0.0024,0.0024,0.0024,0.0024,0.0024,0.0024,0.0537,0.0342,0.0024,0.0366
0.0024,0.0024,0.0024,0.0024,0.0049,0.0024,0.0635,0.0439,0.0024,0.0195
0.0024,0.0024,0.0024,0.0024,0.0024,0.0024,0.0317,0.0317,0.0024,0.0195
0.0024,0.0024,0.0024,0.0024,0.0049,0.0024,0.0024,0.0781,0.0024,0.0098
0.0024,0.0024,0.0024,0.0024,0.0024,0.0024,0.0098,0.0415,0.0024,0.0244
0.0049,0.0024,0.0024,0.0024,0.0024,0.0024,0.0122,0.1196,0.0024,0.0391
0.2148,0.0024,0.0024,0.0024,0.0024,0.0024,0.0562,0.1709,0.0024,0.0293
0.022,0.0024,0.0024,0.0024,0.0024,0.0024,0.0122,0.1074,0.0024,0.0659
0.0171,0.0024,0.0024,0.0024,0.0024,0.0024,0.0171,0.127,0.0024,0.0464
0.0024,0.0024,0.0024,0.0024,0.0024,0.0024,0.0171,0.1392,0.0024,0.0366
0.0171,0.0024,0.0024,0.0024,0.0024,0.0024,0.0317,0.1343,0.0024,0.0342
0.1099,0.0024,0.0024,0.0024,0.0024,0.0024,0.0122,0.1636,0.0024,0.0342
0.083,0.0024,0.0244,0.0024,0.0024,0.0024,0.0024,0.1343,0.0024,0.0269
0.1807,0.0024,0.0879,0.0024,0.0049,0.0024,0.0366,0.1465,0.0684,0.0488
0.0024,0.0024,0.0024,0.0024,0.0024,0.0024,0.0659,0.1099,0.0024,0.0366
0.0195,0.0024,0.0024,0.0024,0.0049,0.0024,0.0635,0.1514,0.0024,0.0537
0.0049,0.0024,0.0024,0.0024,0.0024,0.0024,0.0562,0.1343,0.0024,0.0391
0.0049,0.0024,0.0024,0.0024,0.0024,0.0024,0.0317,0.1001,0.0024,0.0317
0.0366,0.0024,0.0024,0.0024,0.0024,0.0024,0.0171,0.0903,0.0024,0.022
0.2637,0.0024,0.0024,0.0024,0.0024,0.0024,0.0293,0.1611,0.0024,0.0171
0.1318,0.0024,0.0024,0.0024,0.0024,0.0024,0.0269,0.1685,0.0024,0.0439
0.0464,0.0024,0.0024,0.0024,0.0024,0.0024,0.0391,0.1489,0.0024,0.0098
0.1538,0.0024,0.0024,0.0024,0.0024,0.0024,0.0098,0.1294,0.0024,0.0269
0.0562,0.0024,0.0024,0.0024,0.0024,0.0024,0.0586,0.0757,0.0024,0.0366
0.0293,0.0024,0.0024,0.0024,0.0024,0.0024,0.0146,0.083,0.0024,0.0562
0.0024,0.0024,0.0049,0.0024,0.0024,0.0024,0.0024,0.0244,0.0024,0.0586
0.0024,0.0024,0.0024,0.0024,0.0024,0.0024,0.0098,0.083,0.0024,0.061
0.0195,0.0024,0.0024,0.0024,0.0024,0.0024,0.0049,0.061,0.0024,0.0293
0.022,0.0024,0.0024,0.0024,0.0024,0.0024,0.0146,0.1001,0.0024,0.0391
0.0464,0.0024,0.0024,0.0024,0.0024,0.0024,0.0073,0.1245,0.0024,0.0464
0.0537,0.0024,0.0024,0.0024,0.0024,0.0024,0.0806,0.1465,0.0024,0.0586
0.0317,0.0024,0.0024,0.0024,0.0024,0.0024,0.0439,0.144,0.0024,0.0464
0.0391,0.0024,0.0024,0.0024,0.0024,0.0024,0.0195,0.1196,0.0024,0.0562
0.144,0.0024,0.0024,0.0024,0.0024,0.0024,0.0269,0.1392,0.0024,0.0513
0.0024,0.0024,0.0024,0.0024,0.0024,0.0024,0.0195,0.0684,0.0024,0.0366
0.0024,0.0024,0.0024,0.0024,0.0049,0.0024,0.0342,0.0708,0.0024,0.0439
0.0024,0.0024,0.0024,0.0024,0.0024,0.0024,0.0439,0.1196,0.0024,0.0317
0.0024,0.0024,0.0024,0.0024,0.0024,0.0024,0.0171,0.1294,0.0024,0.0171
0.0024,0.0024,0.0024,0.0024,0.0024,0.0024,0.0073,0.127,0.0024,0.0415
0.0146,0.0024,0.0024,0.0024,0.0024,0.0024,0.0244,0.1416,0.0024,0.0293
0.0464,0.0024,0.0024,0.0024,0.0024,0.0024,0.0269,0.1392,0.0024,0.0391
0.0171,0.0024,0.0024,0.0024,0.0024,0.0024,0.0146,0.1172,0.0024,0.0513
0.0024,0.0024,0.0024,0.0024,0.0024,0.0024,0.0146,0.0781,0.0024,0.0195
0.0171,0.0024,0.0024,0.0024,0.0024,0.0024,0.0708,0.1221,0.0024,0.0293
0.0024,0.0024,0.0024,0.0024,0.0024,0.0024,0.0513,0.1025,0.0024,0.0269
0.0024,0.0024,0.0024,0.0024,0.0024,0.0024,0.0146,0.0854,0.0024,0.0244
0.0024,0.0024,0.0024,0.0024,0.0024,0.0024,0.0122,0.0439,0.0024,0.022
0.0146,0.0024,0.0024,0.0024,0.0024,0.0024,0.0269,0.1245,0.0024,0.0195
0.1025,0.0024,0.0024,0.0024,0.0024,0.0024,0.0391,0.105,0.0024,0.0415
0.061,0.0024,0.0024,0.0024,0.0024,0.0024,0.0024,0.0415,0.0195,0.0586
0.0122,0.0024,0.0024,0.0024,0.0024,0.0024,0.0024,0.0391,0.0146,0.0781
0.0024,0.0024,0.0073,0.0024,0.0024,0.0024,0.0024,0.0366,0.0073,0.0537
0.0317,0.0024,0.0024,0.0024,0.0024,0.0024,0.0024,0.0513,0.0122,0.0757
0.0024,0.0024,0.0024,0.0024,0.0024,0.0024,0.0073,0.0366,0.0415,0.0537
0.1782,0.0024,0.0024,0.0024,0.0049,0.0024,0.0024,0.1001,0.0024,0.0513
0.1294,0.0024,0.0024,0.0024,0.0024,0.0024,0.0195,0.1196,0.0024,0.061
0.0073,0.0464,0.0024,0.0024,0.0024,0.0024,0.249,0.1147,0.0317,0.0586
0.0024,0.0024,0.0024,0.0024,0.0024,0.0024,0.0024,0.061,0.0122,0.0464
0.0024,0.0024,0.0024,0.0024,0.0024,0.0024,0.0122,0.1001,0.0854,0.0464
0.1538,0.0024,0.0049,0.0024,0.0024,0.0024,0.0317,0.1538,0.105,0.0635
0.0342,0.0024,0.0024,0.0024,0.0024,0.0024,0.0098,0.1074,0.1001,0.0562
0.0464,0.0024,0.0024,0.0024,0.0024,0.0024,0.0049,0.0854,0.1294,0.0415
0.0171,0.0024,0.0024,0.0024,0.0024,0.0024,0.0049,0.1025,0.1099,0.0537
0.0269,0.0024,0.0024,0.0024,0.0024,0.0024,0.0171,0.1001,0.0952,0.0488
0.0146,0.0024,0.0024,0.0024,0.0024,0.0024,0.0537,0.1514,0.1367,0.0537
0.0024,0.0024,0.0024,0.0024,0.0024,0.0024,0.0073,0.0562,0.1074,0.0366
0.0024,0.0024,0.0024,0.0024,0.0049,0.0024,0.0293,0.0562,0.1074,0.0366
0.0073,0.0024,0.0024,0.0024,0.0024,0.0024,0.0293,0.0903,0.127,0.0195
0.0024,0.0024,0.0024,0.0024,0.0024,0.0024,0.0562,0.0952,0.1147,0.0024
0.0073,0.0024,0.0024,0.0024,0.0024,0.0024,0.0488,0.1025,0.1221,0.0098
0.0024,0.0024,0.0024,0.0024,0.0024,0.0024,0.0513,0.1221,0.144,0.0049
0.0024,0.0024,0.0024,0.0024,0.0024,0.0024,0.0464,0.1025,0.1245,0.0024
0.0122,0.0024,0.0024,0.0024,0.0024,0.0024,0.0024,0.0635,0.1245,0.0024
0.0024,0.0024,0.0024,0.0024,0.0024,0.0024,0.0391,0.0415,0.1147,0.0024
0.0024,0.0024,0.0024,0.0024,0.0024,0.0024,0.0562,0.0244,0.1025,0.0049
0.0024,0.0024,0.0024,0.0024,0.0024,0.0024,0.0244,0.0195,0.0854,0.0073
0.0269,0.0024,0.0024,0.0024,0.0098,0.0098,0.127,0.3198,0.1489,0.0293
0.0122,0.0024,0.0024,0.0024,0.0171,0.0098,0.1221,0.1294,0.1465,0.0195
0.0024,0.0024,0.0024,0.0024,0.0024,0.0024,0.0073,0.0708,0.1221,0.0024
0.0122,0.0024,0.0024,0.0024,0.0024,0.0024,0.0635,0.0952,0.1465,0.0024
0.0024,0.0024,0.0024,0.0024,0.0024,0.0024,0.0366,0.0586,0.1318,0.0024
0.0366,0.0024,0.0024,0.0024,0.0024,0.0024,0.0024,0.0464,0.0024,0.0024
0.0049,0.0024,0.0024,0.0024,0.0024,0.0024,0.0049,0.0293,0.0024,0.0024
0.0024,0.0024,0.0024,0.0024,0.0024,0.0024,0.0269,0.0293,0.0098,0.0024
0.0024,0.0024,0.0024,0.0024,0.0024,0.0024,0.0122,0.0195,0.0024,0.0122
0.0024,0.0024,0.0024,0.0024,0.0024,0.0024,0.0293,0.022,0.0024,0.0073
0.0073,0.0024,0.0024,0.0024,0.0024,0.0024,0.0415,0.0244,0.0024,0.0317
0.0024,0.0024,0.0439,0.0024,0.0024,0.0024,0.0024,0.0244,0.0024,0.0024
0.0024,0.0024,0.0024,0.0024,0.0024,0.0024,0.0049,0.0513,0.0024,0.0024
0.0024,0.0024,0.0024,0.0024,0.0024,0.0024,0.0024,0.0684,0.0049,0.0098
0.0049,0.0024,0.0439,0.0024,0.0024,0.0024,0.0244,0.0513,0.0464,0.0122
0.0122,0.0024,0.0024,0.0024,0.0024,0.0024,0.0098,0.0537,0.0024,0.0073
0.0049,0.0024,0.0024,0.0024,0.0024,0.0024,0.022,0.0757,0.0024,0.0098
0.0659,0.0024,0.0024,0.0024,0.0024,0.0024,0.0024,0.0928,0.0024,0.0098
0.0244,0.0024,0.0024,0.0024,0.0024,0.0024,0.1001,0.0879,0.0024,0.0122
0.0049,0.0024,0.0024,0.0024,0.0049,0.0024,0.2856,0.1099,0.0024,0.0439
0.0098,0.0024,0.0024,0.0024,0.0024,0.0024,0.2222,0.1001,0.0024,0.0269
0.0049,0.0024,0.0024,0.0024,0.0024,0.0024,0.0122,0.0537,0.0024,0.0293
0.0049,0.0024,0.0024,0.0024,0.0024,0.0024,0.1172,0.0586,0.0024,0.0635
0.0024,0.0024,0.0024,0.0024,0.0024,0.0024,0.0488,0.0439,0.0024,0.0488
0.0098,0.0024,0.0024,0.0024,0.0024,0.0024,0.127,0.083,0.0024,0.0854
0.0024,0.0024,0.0024,0.0024,0.0024,0.0024,0.0122,0.0757,0.0024,0.0415
0.0122,0.0024,0.0024,0.0024,0.0024,0.0024,0.3979,0.1465,0.0024,0.0757
0.0073,0.0024,0.0024,0.0024,0.0024,0.0024,0.1416,0.0659,0.0024,0.083
0.0024,0.0024,0.0024,0.0024,0.0024,0.0024,0.0317,0.0439,0.0024,0.0293
0.0073,0.0024,0.0024,0.0024,0.0024,0.0024,0.0488,0.022,0.0024,0.0098
0.0024,0.0024,0.0024,0.0024,0.0024,0.0024,0.0464,0.0244,0.0024,0.0171
0.0024,0.0024,0.0024,0.0024,0.0024,0.0024,0.0464,0.0171,0.0024,0.0146
0.0024,0.0024,0.0024,0.0024,0.0024,0.0024,0.0732,0.0244,0.0024,0.0146
0.0024,0.0024,0.0024,0.0024,0.0049,0.0024,0.1367,0.0244,0.0024,0.0269
0.0024,0.0024,0.0024,0.0024,0.0024,0.0024,0.0586,0.0146,0.0024,0.0146
0.0024,0.0024,0.0024,0.0024,0.0024,0.0024,0.0122,0.0073,0.0024,0.0269
0.0073,0.0024,0.0024,0.0024,0.0024,0.0024,0.1001,0.2319,0.0024,0.022
0.0146,0.0024,0.0024,0.0024,0.0024,0.0024,0.105,0.2051,0.0024,0.0244
0.0024,0.0024,0.0024,0.0024,0.0024,0.0024,0.0586,0.0806,0.0024,0.0098
0.0244,0.0024,0.0024,0.0024,0.0024,0.0024,0.105,0.1367,0.0024,0.0146
0.1685,0.0024,0.0024,0.0024,0.0024,0.0024,0.0146,0.1221,0.0024,0.0098
0.022,0.0024,0.0024,0.0024,0.0024,0.0024,0.0317,0.0684,0.0024,0.0024
0.0024,0.0024,0.0024,0.0024,0.0024,0.0024,0.0317,0.0366,0.0024,0.0024
0.0024,0.0024,0.0024,0.0024,0.0024,0.0024,0.0806,0.0464,0.0024,0.0024
0.0024,0.0024,0.0024,0.0024,0.0024,0.0024,0.0391,0.0562,0.0024,0.0049
0.0073,0.0024,0.0024,0.0024,0.0024,0.0024,0.1514,0.083,0.0024,0.022
0.0024,0.0024,0.0024,0.0024,0.0024,0.0024,0.1172,0.0684,0.0024,0.0098
0.0024,0.0024,0.0024,0.0024,0.0024,0.0024,0.1172,0.0659,0.0024,0.0122
0.0049,0.0024,0.0024,0.0024,0.0024,0.0024,0.1294,0.0977,0.0024,0.0146
0.0024,0.0024,0.0024,0.0024,0.0024,0.0024,0.0293,0.0513,0.0049,0.0146
0.0024,0.0024,0.0024,0.0024,0.0024,0.0024,0.0122,0.0342,0.0024,0.0146
0.0024,0.0024,0.0024,0.0024,0.0024,0.0024,0.0098,0.0757,0.0024,0.0439
0.0098,0.0024,0.0024,0.0024,0.0049,0.0024,0.0171,0.1074,0.0024,0.0488
0.0708,0.0024,0.0024,0.0024,0.0024,0.0024,0.0171,0.1416,0.0024,0.0439
0.0635,0.0024,0.0024,0.0024,0.0024,0.0024,0.0317,0.144,0.0024,0.0537
0.0537,0.0024,0.0024,0.0024,0.0024,0.0024,0.0098,0.0854,0.0024,0.0635
0.0049,0.0024,0.0024,0.0024,0.0024,0.0024,0.0024,0.1074,0.0024,0.0439
0.0073,0.0024,0.0024,0.0024,0.0024,0.0024,0.0098,0.1392,0.0024,0.0244
0.0024,0.0024,0.0049,0.0024,0.0049,0.0024,0.0024,0.0708,0.0024,0.0439
0.0854,0.0024,0.0024,0.0024,0.0024,0.0024,0.0977,0.1855,0.0024,0.0488
0.0024,0.0024,0.0024,0.0024,0.0024,0.0024,0.1172,0.127,0.0024,0.0537
0.0024,0.0024,0.0024,0.0024,0.0024,0.0024,0.0146,0.0488,0.0024,0.0635
0.0024,0.0024,0.0049,0.0024,0.0024,0.0024,0.127,0.1465,0.0024,0.0293
0.0073,0.0024,0.0024,0.0024,0.0049,0.0024,0.0146,0.1392,0.0024,0.061
0.0024,0.0024,0.0024,0.0024,0.0024,0.0024,0.0317,0.1538,0.0024,0.0439
0.0732,0.0024,0.0024,0.0024,0.0024,0.0024,0.0195,0.1196,0.0024,0.0293
0.1147,0.0024,0.0024,0.0024,0.0024,0.0024,0.0269,0.1587,0.0024,0.0293
0.144,0.0024,0.0024,0.0024,0.0024,0.0024,0.0317,0.1855,0.0024,0.022
0.0073,0.0024,0.0024,0.0024,0.0024,0.0024,0.0171,0.1123,0.0024,0.0391
0.0732,0.0024,0.0024,0.0024,0.0024,0.0024,0.0049,0.144,0.0024,0.0513
0.0024,0.0024,0.0024,0.0024,0.0024,0.0024,0.0024,0.0586,0.0024,0.0391
0.0049,0.0024,0.0024,0.0024,0.0024,0.0024,0.0024,0.0317,0.0024,0.0244
0.1685,0.0024,0.0024,0.0024,0.0024,0.0024,0.0293,0.166,0.0024,0.0293
0.127,0.0024,0.0024,0.0024,0.0024,0.0024,0.0024,0.1172,0.0024,0.022
0.1245,0.0024,0.0049,0.0024,0.0024,0.0024,0.0024,0.0977,0.0024,0.0439
0.1733,0.0024,0.0024,0.0024,0.0024,0.0024,0.0171,0.1172,0.0024,0.022
0.0146,0.0024,0.0049,0.0024,0.0024,0.0024,0.0146,0.0732,0.0024,0.0293
0.0024,0.0024,0.0024,0.0024,0.0024,0.0024,0.0244,0.0854,0.0024,0.0195
0.0024,0.0024,0.0024,0.0024,0.0024,0.0024,0.0024,0.0415,0.0049,0.0537
0.0122,0.0024,0.0024,0.0024,0.0024,0.0024,0.0024,0.0488,0.0024,0.0391
0.0757,0.0024,0.0024,0.0024,0.0024,0.0024,0.0024,0.1074,0.0024,0.0537
0.0024,0.0024,0.0024,0.0024,0.0024,0.0024,0.0781,0.0928,0.0024,0.0562
0.0024,0.0024,0.0024,0.0024,0.0024,0.0024,0.0269,0.0854,0.0024,0.0488
0.0073,0.0024,0.0049,0.0024,0.0024,0.0024,0.0024,0.0244,0.0024,0.0562
0.0171,0.0024,0.0024,0.0024,0.0024,0.0024,0.0024,0.0366,0.0024,0.0684
0.0244,0.0171,0.0415,0.2075,0.0757,0.0464,0.2783,0.1294,0.0171,0.0732
0.0024,0.0024,0.0024,0.0049,0.0024,0.0024,0.0391,0.1245,0.0024,0.0464
0.0024,0.0024,0.0024,0.0024,0.0024,0.0024,0.0464,0.0562,0.0024,0.0537
0.0024,0.0024,0.0024,0.0024,0.0049,0.0024,0.0464,0.0757,0.0024,0.0488
0.0024,0.0024,0.0024,0.0024,0.0049,0.0024,0.0024,0.0488,0.0024,0.0366
0.0024,0.0024,0.0024,0.0024,0.0024,0.0024,0.0464,0.083,0.0024,0.0293
0.0024,0.0024,0.0024,0.0024,0.0024,0.0024,0.0439,0.0757,0.0024,0.0415
0.0342,0.0024,0.0024,0.0024,0.0024,0.0024,0.0171,0.0928,0.0024,0.0464
0.0586,0.0024,0.0024,0.0024,0.0024,0.0024,0.0293,0.105,0.0024,0.0586
0.0073,0.0024,0.0024,0.0024,0.0024,0.0024,0.0366,0.1392,0.2026,0.0439
0.0049,0.0024,0.0024,0.0024,0.0024,0.0024,0.0244,0.1538,0.0024,0.0342
0.0024,0.0024,0.0024,0.0024,0.0024,0.0024,0.0146,0.1245,0.0024,0.0269
0.0098,0.0024,0.0024,0.0024,0.0024,0.0024,0.022,0.1221,0.0024,0.0391
0.0024,0.0024,0.0024,0.0024,0.0024,0.0024,0.0098,0.0928,0.0024,0.0244
0.0024,0.0024,0.0024,0.0024,0.0024,0.0024,0.0439,0.1294,0.0024,0.0342
0.0024,0.0024,0.0024,0.0024,0.0024,0.0024,0.0049,0.0635,0.0024,0.0195
0.0024,0.0024,0.0024,0.0024,0.0024,0.0024,0.0122,0.0513,0.0024,0.0293
0.2246,0.0024,0.0024,0.0024,0.0024,0.0024,0.0635,0.3198,0.0024,0.0586
0.0049,0.0024,0.0024,0.0024,0.0024,0.0024,0.0122,0.0513,0.0024,0.0537
0.0171,0.0024,0.0024,0.0024,0.0024,0.0024,0.0024,0.0439,0.0024,0.0464
0.0024,0.0024,0.0049,0.0024,0.0024,0.0024,0.0024,0.0024,0.0195,0.0488
0.0537,0.0024,0.0024,0.0024,0.0024,0.0024,0.0024,0.0732,0.0293,0.0586
0.0024,0.0024,0.0024,0.0024,0.0024,0.0024,0.0024,0.0439,0.022,0.0586
0.0073,0.0024,0.0024,0.0024,0.0024,0.0024,0.0195,0.083,0.0024,0.0732
0.0098,0.0024,0.0024,0.0024,0.0024,0.0024,0.0293,0.0781,0.0146,0.0513
0.1245,0.0024,0.0024,0.0024,0.0024,0.0024,0.0024,0.0732,0.0024,0.0513
0.0708,0.0024,0.0024,0.0049,0.0024,0.0024,0.0024,0.0317,0.0024,0.0488
0.0024,0.0024,0.0024,0.0024,0.0024,0.0024,0.0439,0.0928,0.0024,0.0635
0.0269,0.0024,0.0024,0.0024,0.0024,0.0024,0.022,0.0903,0.0024,0.0464
0.0464,0.0024,0.0024,0.0024,0.0024,0.0024,0.0317,0.1392,0.1172,0.0537
0.0049,0.0024,0.0024,0.0024,0.0024,0.0024,0.0073,0.0635,0.1025,0.0269
0.0024,0.0024,0.0049,0.0024,0.0024,0.0024,0.0073,0.0513,0.1001,0.0391
0.0269,0.0024,0.0024,0.0024,0.0024,0.0024,0.0342,0.1636,0.1196,0.0537
0.0024,0.0024,0.0024,0.0024,0.0024,0.0024,0.0024,0.1123,0.105,0.0537
0.0098,0.0024,0.0024,0.0024,0.0024,0.0024,0.0024,0.0488,0.0977,0.0488
0.0195,0.0024,0.0024,0.0024,0.0024,0.0024,0.0171,0.1196,0.127,0.0464
0.0293,0.0024,0.0024,0.0024,0.0024,0.0024,0.022,0.1489,0.144,0.0293
0.0024,0.0024,0.0024,0.0024,0.0024,0.0024,0.0049,0.0439,0.1074,0.0391
0.0024,0.0024,0.0024,0.0024,0.0024,0.0024,0.0024,0.0537,0.0952,0.0342
0.0024,0.0024,0.0024,0.0024,0.0024,0.0024,0.0024,0.0488,0.1001,0.0366
0.0024,0.0024,0.0024,0.0024,0.0024,0.0024,0.1147,0.0854,0.1196,0.0024
0.0024,0.0024,0.0024,0.0024,0.0024,0.0024,0.022,0.0854,0.1514,0.0024
0.0122,0.0024,0.0024,0.0024,0.0049,0.0024,0.0391,0.0977,0.1172,0.0073
0.0024,0.0024,0.0024,0.0024,0.0024,0.0024,0.0024,0.2026,0.1489,0.0024
0.0635,0.0024,0.0024,0.0024,0.0024,0.0024,0.0659,0.2124,0.1563,0.0024
0.0024,0.0024,0.0024,0.0024,0.0024,0.0024,0.0073,0.0244,0.1001,0.0024
0.0024,0.0024,0.0024,0.0024,0.0024,0.0024,0.0537,0.0415,0.0854,0.0098
0.0024,0.0024,0.0024,0.0024,0.0024,0.0024,0.1245,0.1733,0.1172,0.0073
0.0024,0.0024,0.0024,0.0024,0.0024,0.0024,0.0391,0.0122,0.0879,0.0024
0.0024,0.0024,0.0024,0.0024,0.0024,0.0024,0.0366,0.0244,0.0586,0.0049
0.0024,0.0024,0.0024,0.0024,0.0024,0.0024,0.0269,0.0073,0.0708,0.0098
0.0024,0.0024,0.0024,0.0024,0.0024,0.0024,0.0342,0.0269,0.0732,0.0146
0.0024,0.0024,0.0024,0.0024,0.0024,0.0024,0.022,0.0293,0.0732,0.0146
0.0024,0.0024,0.0024,0.0024,0.0024,0.0024,0.0195,0.0854,0.1367,0.0195
0.022,0.0024,0.0024,0.0024,0.0024,0.0024,0.0928,0.144,0.1172,0.0244
0.0024,0.0024,0.0024,0.0024,0.0024,0.0024,0.0195,0.0464,0.1196,0.0024
0.0024,0.0024,0.0024,0.0024,0.0024,0.0024,0.0024,0.061,0.1172,0.0024
0.0024,0.0024,0.0024,0.0024,0.0024,0.0024,0.083,0.1001,0.1465,0.0024
0.0049,0.0024,0.0024,0.0024,0.0024,0.0024,0.105,0.105,0.1221,0.0049
0.0122,0.0024,0.0024,0.0024,0.0024,0.0024,0.0635,0.1343,0.1123,0.0024
0.022,0.0024,0.0024,0.0024,0.0024,0.0024,0.0757,0.0952,0.0635,0.0024
0.0342,0.0024,0.0024,0.0024,0.0024,0.0024,0.061,0.083,0.0732,0.0024
0.0049,0.0024,0.0024,0.0024,0.0024,0.0024,0.0293,0.1514,0.0415,0.0195
0.0024,0.0024,0.1074,0.0024,0.0024,0.0024,0.0366,0.1514,0.022,0.0122
0.0024,0.0024,0.0684,0.0024,0.0024,0.0024,0.0073,0.1465,0.0488,0.0024
0.0024,0.0024,0.0439,0.0024,0.0024,0.0024,0.0024,0.0879,0.0342,0.0171
0.0024,0.0024,0.0024,0.0024,0.0049,0.0024,0.0195,0.1245,0.0073,0.0049
0.0024,0.0024,0.0024,0.0024,0.0024,0.0024,0.0439,0.1367,0.0024,0.0098
0.0024,0.0024,0.0024,0.0024,0.0024,0.0024,0.0415,0.1489,0.0098,0.0024
0.0024,0.0024,0.0024,0.0024,0.0024,0.0024,0.0122,0.1025,0.0024,0.0244
0.0024,0.0024,0.0024,0.0024,0.0024,0.0024,0.0024,0.1514,0.0317,0.0024
0.0024,0.0024,0.0049,0.0024,0.0024,0.0024,0.0024,0.0757,0.0464,0.0024
0.0244,0.0024,0.0024,0.0024,0.0024,0.0024,0.0146,0.1001,0.0977,0.0024
0.0024,0.0024,0.0024,0.0024,0.0024,0.0024,0.0024,0.0903,0.1196,0.0098
0.0024,0.0024,0.0024,0.0024,0.0024,0.0024,0.0049,0.0537,0.0952,0.0024
0.0073,0.0024,0.0024,0.0024,0.0024,0.0024,0.0146,0.0854,0.0488,0.0024
0.0024,0.0024,0.0024,0.0024,0.0024,0.0024,0.0024,0.0684,0.0293,0.0024
0.0024,0.0024,0.0024,0.0024,0.0024,0.0024,0.0073,0.0879,0.0317,0.0024
0.0415,0.0024,0.0024,0.0024,0.0024,0.0024,0.0244,0.1196,0.0562,0.0195
0.0024,0.0024,0.0024,0.0024,0.0024,0.0024,0.0244,0.1587,0.0171,0.0024
0.0928,0.0024,0.0024,0.0024,0.0024,0.0024,0.0659,0.1367,0.0049,0.0049
0.0854,0.0024,0.0024,0.0024,0.0024,0.0024,0.0488,0.1196,0.0024,0.0049
0.0049,0.0024,0.0024,0.0024,0.0024,0.0024,0.0708,0.1147,0.0024,0.0049
0.0928,0.0024,0.0024,0.0024,0.0024,0.0024,0.0732,0.1196,0.0024,0.0024
0.0562,0.0024,0.0024,0.0024,0.0024,0.0024,0.0024,0.1489,0.1465,0.3809
0.0879,0.0464,0.1514,0.1392,0.0391,0.0195,0.4248,0.5518,0.1245,0.0195
0.0024,0.0024,0.0024,0.0024,0.0024,0.0024,0.0293,0.083,0.0391,0.0024
0.1416,0.0024,0.0024,0.0171,0.0024,0.0024,0.0586,0.1733,0.1172,0.0171
0.0684,0.0024,0.0049,0.0024,0.0024,0.0024,0.0073,0.1782,0.0952,0.0146
0.1245,0.0024,0.0024,0.0024,0.0024,0.0024,0.0098,0.1831,0.0903,0.0098
0.0024,0.0024,0.2954,0.0024,0.0024,0.0024,0.0024,0.0537,0.1147,0.0146
0.0024,0.0024,0.0024,0.0024,0.0024,0.0024,0.0024,0.1196,0.0952,0.0171
0.0122,0.0024,0.0024,0.0024,0.0024,0.0024,0.0171,0.1416,0.1514,0.0122
0.0073,0.0024,0.0024,0.0024,0.0024,0.0024,0.0122,0.1514,2.3462,0.0073
0.0439,0.0024,0.0024,0.0024,0.0244,0.0024,0.0098,0.0439,0.0732,0.0171
0.0366,0.0024,0.0024,0.0024,0.0024,0.0024,0.1782,0.3418,0.2832,0.0293
0.0098,0.0024,0.0024,0.0024,0.0024,0.0024,0.1172,0.1978,0.1294,0.0195
0.0024,0.0024,0.0024,0.0024,0.0024,0.0024,0.022,0.0903,0.1294,0.022
0.0024,0.0024,0.0024,0.0024,0.0024,0.0024,0.0122,0.1025,0.0757,0.0244
0.0024,0.0024,0.0024,0.0024,0.0024,0.0024,0.0122,0.1318,0.1074,0.0366
0.0024,0.0024,0.0024,0.0024,0.0024,0.0024,0.0244,0.0854,0.0928,0.0562
0.0024,0.0024,0.0024,0.0024,0.0024,0.0024,0.0024,0.022,0.105,0.0439
0.0073,0.0024,0.0024,0.0024,0.0024,0.0024,0.1587,0.1611,0.1294,0.0171
0.0195,0.0024,0.0024,0.0024,0.0024,0.0024,0.0195,0.1318,0.0732,0.0146
0.0342,0.0024,0.0024,0.0024,0.0024,0.0024,0.0024,0.2051,0.0024,0.0171
0.0342,0.0024,0.0024,0.0024,0.0024,0.0024,0.0122,0.1855,0.0024,0.0122
0.0195,0.0024,0.0024,0.0024,0.0024,0.0024,0.0269,0.2222,0.0024,0.0073
0.0024,0.0024,0.0024,0.0024,0.0024,0.0024,0.0415,0.1514,0.0171,0.0024
0.0684,0.0024,0.0024,0.0024,0.0024,0.0024,0.0024,0.0439,0.0952,0.0171
0.2808,0.0024,0.0171,0.0171,0.0342,0.0146,0.1465,0.459,0.1221,0.1636
0.9058,0.1294,0.2637,0.0928,0.0024,0.0024,0.5933,0.4004,1.8774,0.1904
0.022,0.0024,0.0024,0.0024,0.0024,0.0024,0.0024,0.1001,0.0952,0.0024
0.0854,0.0024,0.0024,0.0024,0.0024,0.0024,0.0024,0.0635,0.0684,0.0024
0.061,0.0024,0.0024,0.0024,0.0049,0.0024,0.0049,0.0757,0.0732,0.0024
0.0024,0.0024,0.0024,0.0024,0.0049,0.0024,0.0684,0.0513,0.0537,0.0024
0.0684,0.0024,0.0537,0.1147,0.0024,0.0024,0.2319,0.5078,3.1738,0.376
0.0977,0.0757,0.0024,0.0757,0.0024,0.0024,0.1416,0.415,0.0928,0.0684
0.2051,0.2417,0.0732,0.0781,0.0024,0.0024,0.6836,0.8911,0.0903,0.0024
0.061,0.0415,0.0024,0.0024,0.0024,0.0024,0.061,0.4834,0.0513,0.0024
0.0415,0.0146,0.0024,0.0024,0.0024,0.0024,0.0024,0.3833,0.0562,0.0049
0.105,0.2563,0.0024,0.0049,0.0854,0.1099,1.2378,0.5933,2.2803,0.083
0.0024,0.0024,0.0024,0.0024,0.0024,0.0024,0.0024,0.0024,0.0903,0.0024
0.1538,0.0659,0.0024,0.0586,0.0024,0.0024,0.1807,0.4907,0.332,0.0439
0.0049,0.0024,0.0024,0.1318,0.0049,0.0024,0.0391,0.3198,0.0879,0.0366
0.0073,0.0024,0.0024,0.0684,0.0024,0.0024,0.1318,0.3076,0.0708,0.0146
0.0146,0.0024,0.0049,0.0024,0.0024,0.0024,0.0415,0.1367,0.1001,0.0024
0.1953,0.0024,0.0024,0.0024,0.0024,0.0024,0.0024,0.1123,0.1514,0.0024
0.0513,0.0024,0.0024,0.0024,0.0049,0.0024,0.0024,0.083,0.1416,0.0024
0.0244,0.0024,0.0024,0.0024,0.0024,0.0024,0.0024,0.061,0.1392,0.0024
0.0195,0.0024,0.0024,0.0024,0.0024,0.0024,0.0366,0.0513,0.0024,0.0024
0.0342,0.0024,0.0024,0.0024,0.0049,0.0024,0.0024,0.0269,0.0024,0.0024
0.0464,0.0024,0.0024,0.0024,0.0024,0.0024,0.0024,0.0171,0.0024,0.0024
0.0024,0.0024,0.0024,0.0024,0.0024,0.0024,0.0269,0.022,0.0098,0.0073
0.0024,0.0024,0.1343,0.0024,0.0024,0.0024,0.0635,0.0293,0.2246,0.0122
0.0024,0.0024,0.0024,0.0024,0.0024,0.0024,0.0537,0.0293,0.0024,0.0024
0.0024,0.0024,0.0024,0.0024,0.0024,0.0024,0.0464,0.0171,0.0024,0.0293
0.0049,0.0024,0.0024,0.0024,0.0024,0.0024,0.0171,0.0269,0.0073,0.0122
0.0024,0.0024,0.0024,0.0024,0.0024,0.0024,0.0439,0.0244,0.0122,0.0464
0.0024,0.0024,0.0024,0.0024,0.0024,0.0024,0.0195,0.061,0.0024,0.0171
0.0024,0.0024,0.0317,0.0049,0.0024,0.0024,0.0269,0.0757,0.0024,0.0146
0.0049,0.0024,0.0024,0.0024,0.0024,0.0024,0.0391,0.0732,0.0024,0.0024
0.0049,0.0024,0.0024,0.0024,0.0024,0.0024,0.0049,0.0684,0.0195,0.0049
0.0122,0.0024,0.0024,0.0024,0.0024,0.0024,0.0024,0.0928,0.0024,0.0024
0.0171,0.0024,0.022,0.0024,0.0024,0.0024,0.0317,0.0537,0.0635,0.0171
0.0073,0.0024,0.0024,0.0024,0.0024,0.0024,0.1147,0.0757,0.0049,0.0293
0.0073,0.0024,0.0024,0.0024,0.0024,0.0024,0.0684,0.0879,0.0024,0.0146
0.0049,0.0024,0.0098,0.0195,0.0024,0.0024,0.2393,0.1074,0.0024,0.0244
0.0024,0.0024,0.0024,0.0024,0.0024,0.0024,0.2832,0.1123,0.0024,0.0293
0.0024,0.0024,0.0024,0.0024,0.0024,0.0024,0.0342,0.0586,0.0024,0.0073
0.0024,0.0024,0.0024,0.0024,0.0024,0.0024,0.0317,0.0366,0.0024,0.0317
0.0024,0.0024,0.0024,0.0024,0.0024,0.0024,0.0562,0.0342,0.0024,0.061
0.0024,0.0024,0.0049,0.0024,0.0024,0.0024,0.0903,0.0732,0.0024,0.0659
0.0024,0.0024,0.0024,0.0024,0.0024,0.0024,0.5835,0.1465,0.0024,0.0903
0.0122,0.0024,0.0024,0.0024,0.0024,0.0024,0.2637,0.1001,0.0024,0.1221
0.0024,0.0024,0.0024,0.0024,0.0024,0.0024,0.0024,0.0586,0.0024,0.0659
0.0024,0.0024,0.0024,0.0024,0.0024,0.0024,0.0122,0.0171,0.0024,0.061
0.0146,0.0024,0.0024,0.0024,0.0024,0.0024,0.0659,0.1074,0.0024,0.0415
0.0269,0.0024,0.0024,0.0024,0.0024,0.0024,0.061,0.1953,0.0024,0.0488
0.0195,0.0024,0.0024,0.0024,0.0024,0.0024,0.0293,0.1001,0.0049,0.0488
0.0195,0.0024,0.0757,0.0024,0.0024,0.0024,0.0024,0.022,0.0024,0.0317
0.0464,0.0024,0.0024,0.0024,0.0024,0.0024,0.0171,0.1392,0.0024,0.0464
0.0513,0.0024,0.0024,0.0024,0.0024,0.0024,0.0781,0.1294,0.0024,0.0439
0.0122,0.0024,0.0024,0.0024,0.0024,0.0024,0.0146,0.1001,0.0024,0.0415
0.022,0.0024,0.0024,0.0024,0.0024,0.0024,0.0024,0.1074,0.0024,0.0415
0.0024,0.0024,0.0024,0.0024,0.0049,0.0024,0.0171,0.0952,0.0024,0.0366
0.0024,0.0024,0.0024,0.0024,0.0024,0.0024,0.0122,0.0977,0.0024,0.0195
0.0024,0.0024,0.0024,0.0024,0.0024,0.0024,0.0781,0.1001,0.0024,0.0244
0.0073,0.0024,0.0024,0.0024,0.0024,0.0024,0.0269,0.0879,0.0024,0.0244
0.3052,0.0024,0.0024,0.0024,0.0024,0.0024,0.061,0.3931,0.0024,0.0513
0.1978,0.0024,0.0024,0.0024,0.0024,0.0024,0.0806,0.2759,0.0024,0.0342
0.0464,0.0024,0.0024,0.0024,0.0024,0.0024,0.0024,0.0537,0.0024,0.0439
0.0024,0.0024,0.0098,0.0024,0.0024,0.0024,0.0024,0.0195,0.0171,0.0586
0.0244,0.0024,0.0024,0.0024,0.0024,0.0024,0.0024,0.0562,0.0122,0.0415
0.0024,0.0024,0.0024,0.0024,0.0024,0.0024,0.0122,0.0244,0.0342,0.0537
0.022,0.0024,0.0049,0.0024,0.0024,0.0024,0.0171,0.0708,0.0244,0.0562
0.0757,0.0024,0.0024,0.0024,0.0024,0.0024,0.0024,0.0903,0.0073,0.0488
0.0659,0.0024,0.0049,0.0024,0.0024,0.0024,0.0244,0.1172,0.0024,0.0415
0.083,0.0024,0.0024,0.0024,0.0024,0.0024,0.0098,0.0732,0.0024,0.0488
0.0317,0.0024,0.0024,0.0024,0.0024,0.0024,0.0098,0.0684,0.0024,0.0439
0.0024,0.0024,0.0024,0.0024,0.0024,0.0024,0.0024,0.1489,0.0024,0.0269
0.0024,0.0024,0.0024,0.0024,0.0024,0.0024,0.0146,0.1001,0.5688,0.1318
0.0562,0.0024,0.0024,0.0024,0.0024,0.0024,0.0049,0.083,0.0977,0.0537
0.0098,0.0024,0.0024,0.0024,0.0024,0.0024,0.0073,0.127,0.1196,0.0537
0.0024,0.0024,0.0049,0.0024,0.0049,0.0024,0.0098,0.061,0.0977,0.0366
0.0146,0.0024,0.0024,0.0024,0.0024,0.0024,0.0244,0.1123,0.1489,0.0342
0.0488,0.0024,0.0049,0.0024,0.0024,0.0024,0.0146,0.1245,0.1099,0.0464
0.061,0.0024,0.0024,0.0024,0.0024,0.0024,0.0171,0.1343,0.1147,0.0464
0.0244,0.0024,0.0024,0.0024,0.0024,0.0024,0.0024,0.0928,0.1001,0.0317
0.0024,0.0024,0.0024,0.0024,0.0024,0.0024,0.0049,0.0732,0.0854,0.0342
0.0146,0.0024,0.0024,0.0024,0.0024,0.0024,0.0073,0.1025,0.1367,0.0488
0.0024,0.0024,0.0024,0.0024,0.0024,0.0024,0.0049,0.0806,0.1074,0.0586
0.0024,0.0024,0.0024,0.0024,0.0024,0.0024,0.0122,0.0684,0.1245,0.0415
0.0024,0.0024,0.0024,0.0024,0.0024,0.0024,0.0024,0.0439,0.1221,0.0293
0.0073,0.0024,0.0024,0.0024,0.0024,0.0024,0.0366,0.1196,0.144,0.0024
0.0024,0.0024,0.0024,0.0024,0.0024,0.0024,0.0024,0.0317,0.1221,0.0049
0.0024,0.0024,0.0024,0.0024,0.0024,0.0024,0.0293,0.0537,0.1245,0.0171
0.0269,0.0024,0.0024,0.0024,0.0024,0.0024,0.0024,0.1123,0.1123,0.0024
0.0024,0.0024,0.0024,0.0024,0.0024,0.0024,0.0464,0.0635,0.1074,0.0024
0.0024,0.0024,0.0024,0.0024,0.0024,0.0024,0.0586,0.0854,0.1123,0.0024
0.0024,0.0024,0.0024,0.0024,0.0024,0.0024,0.0708,0.0171,0.0757,0.022
0.0098,0.0024,0.0024,0.0024,0.0024,0.0024,0.0342,0.1221,0.1367,0.0024
0.0024,0.0024,0.0024,0.0024,0.0024,0.0024,0.0171,0.0806,0.1147,0.0049
0.0024,0.0024,0.0024,0.0024,0.0024,0.0024,0.022,0.061,0.1294,0.0049
0.0024,0.0024,0.0024,0.0024,0.0024,0.0024,0.0293,0.0513,0.1318,0.0024
0.0024,0.0024,0.0024,0.0024,0.0024,0.0024,0.0952,0.1196,0.1099,0.0024
0.0537,0.0024,0.0024,0.0024,0.0024,0.0049,0.0903,0.144,0.0708,0.1074
0.0024,0.0024,0.0024,0.0024,0.0024,0.0024,0.0366,0.1465,0.0342,0.0049
0.0146,0.0024,0.0024,0.0024,0.1025,0.0293,0.0171,0.0732,0.2246,0.0073
0.0293,0.0024,0.0098,0.0073,0.022,0.0146,0.2197,0.2612,0.1685,0.6348
0.0146,0.0024,0.0024,0.0024,0.0024,0.0024,0.0269,0.0928,0.0488,0.0024
0.0586,0.0024,0.0024,0.0024,0.0024,0.0024,0.0537,0.1172,0.1074,0.0024
0.022,0.0024,0.0024,0.0024,0.0024,0.0024,0.0317,0.1221,0.1001,0.0024
0.0366,0.0024,0.0024,0.0024,0.0024,0.0024,0.0098,0.1074,0.0757,0.0024
0.1123,0.0024,0.0024,0.0024,0.0024,0.0024,0.0146,0.1074,0.0854,0.0024
0.0049,0.0024,0.0024,0.0024,0.0024,0.0024,0.0122,0.0806,0.1099,0.0024
0.0024,0.0024,0.0024,0.0024,0.0024,0.0024,0.0146,0.0903,0.1196,0.0024
0.0708,0.0024,0.4175,0.0024,0.0024,0.0024,0.0024,0.1563,0.1172,0.0024
0.0317,0.0024,0.0024,0.0024,0.0024,0.0024,0.0439,0.1587,0.1196,0.0024
0.0269,0.0024,0.0024,0.0024,0.0024,0.0024,0.0659,0.127,0.105,0.0073
0.0146,0.0024,0.0024,0.0024,0.0024,0.0024,0.022,0.1343,0.0439,0.0024
0.0024,0.0024,0.0024,0.0024,0.0024,0.0024,0.0195,0.0757,0.0415,0.0024
0.0024,0.0024,0.0049,0.0024,0.0024,0.0024,0.0439,0.1294,0.0146,0.0049
0.0024,0.0024,0.0024,0.0024,0.0024,0.0024,0.0732,0.1074,0.0024,0.0073
0.0024,0.0024,0.0024,0.0024,0.0024,0.0024,0.0562,0.1147,0.0024,0.0024
1.2671,0.144,0.1343,0.2686,0.0757,0.0464,0.2563,1.7773,0.144,0.0146
0.0513,0.0024,0.0439,0.0024,0.0024,0.0024,0.2148,0.2271,1.1719,0.2515
0.0098,0.0024,0.1074,0.1147,0.0024,0.0024,0.0439,0.1196,0.1392,0.0073
0.0171,0.0024,0.3271,0.0024,0.0049,0.0024,0.0024,0.105,0.1001,0.0049
0.0024,0.0024,0.0024,0.0024,0.0024,0.0024,0.0024,0.1294,0.0732,0.0146
0.0024,0.0024,0.0024,0.0024,0.0024,0.0024,0.0024,0.1196,0.0952,0.0244
0.0317,0.0024,0.0024,0.0024,0.0024,0.0024,0.0122,0.1636,0.0684,0.0098
0.022,0.0024,0.0024,0.0024,0.0024,0.0024,0.0024,0.2222,0.1025,0.0122
0.0024,0.0024,0.0024,0.0024,0.0024,0.0024,0.0513,0.0684,0.1343,0.0098
0.0024,0.0024,0.0024,0.0024,0.0049,0.0024,0.0684,0.0635,0.1221,0.0073
0.0244,0.0024,0.0293,0.0024,0.0195,0.0024,0.0977,0.1758,0.0928,0.0195
0.0024,0.0024,0.0024,0.0024,0.0024,0.0024,0.1611,0.0879,0.0928,0.0098
0.0024,0.0024,0.0024,0.0024,0.0024,0.0024,0.0098,0.0757,0.105,0.0024
0.0024,0.0024,0.0024,0.0024,0.0024,0.0024,0.0854,0.105,0.1172,0.0024
0.0024,0.0024,0.0024,0.0024,0.0024,0.0024,0.0024,0.0488,0.1147,0.0171
0.0024,0.0024,0.0024,0.0024,0.0024,0.0024,0.0122,0.1343,0.1025,0.0317
0.0146,0.0024,0.0024,0.0024,0.0024,0.0024,0.0391,0.1611,0.0732,0.0146
0.0439,0.0024,0.0024,0.0024,0.0024,0.0024,0.0269,0.1782,0.0391,0.0195
0.0659,0.0146,0.0024,0.0024,0.0024,0.0024,0.0879,0.3735,0.0586,0.0146
0.0171,0.0024,0.0024,0.0024,0.0024,0.0024,0.022,0.2759,0.0049,0.0171
0.0195,0.0024,0.0024,0.0024,0.0024,0.0024,0.0366,0.2612,0.0024,0.0024
0.0122,0.0024,0.0024,0.0024,0.0024,0.0024,0.0098,0.2002,0.0024,0.0195
0.498,0.1904,0.7056,0.4272,0.0464,0.0513,0.4688,1.2427,0.1636,0.1172
0.0952,0.083,1.2085,0.1245,0.0049,0.0024,0.1929,0.3589,0.1392,0.0073
0.3076,0.1587,0.0537,0.0537,0.0488,0.0415,0.2612,0.564,0.9326,0.498
1.2744,0.0806,0.2124,0.0269,0.0146,0.0146,0.0684,0.3613,0.1196,0.0024
0.0024,0.0024,0.0024,0.0024,0.0024,0.0024,0.0024,0.0757,0.0879,0.0024
0.0049,0.0024,0.0024,0.0024,0.0024,0.0024,0.0024,0.1465,0.0781,0.0513
0.0195,0.0024,0.0024,0.0098,0.0024,0.0024,0.0024,0.4663,0.0757,0.0146
0.0342,0.0171,0.0024,0.0024,0.0024,0.0024,0.0806,0.4688,0.0659,0.0024
0.0415,0.0049,0.0024,0.0024,0.0024,0.0024,0.0024,0.271,0.0806,0.0024
0.0439,0.0024,0.0024,0.0024,0.0024,0.0024,0.0024,0.2173,0.0635,0.0024
0.188,0.1782,0.0244,0.1392,0.0024,0.0049,0.2612,0.6665,0.6689,0.2612
0.0049,0.0024,0.0024,0.0342,0.0024,0.0024,0.0464,0.3101,0.0513,0.0098
0.0171,0.0024,0.0024,0.0024,0.0049,0.0024,0.0635,0.1733,0.0854,0.0024
0.0098,0.0024,0.0024,0.0024,0.0024,0.0024,0.0024,0.0024,0.127,0.0024
0.0293,0.0024,0.0024,0.0024,0.0464,0.0073,0.1978,0.2686,0.1587,0.0049
0.0635,0.0024,0.0024,0.0024,0.0024,0.0024,0.0024,0.1147,0.1147,0.0024
0.1465,0.0024,0.0024,0.0024,0.0024,0.0024,0.0293,0.1489,0.1782,0.0269
0.0537,0.0024,0.0024,0.0024,0.0024,0.0024,0.0024,0.0244,0.0024,0.0024
0.0024,0.0024,0.0024,0.0024,0.0024,0.0024,0.0562,0.0366,0.0024,0.0024
0.0024,0.0024,0.0073,0.0024,0.0024,0.0024,0.0024,0.0195,0.0024,0.0024
0.0024,0.0024,0.0024,0.0024,0.0024,0.0024,0.0049,0.0684,0.0049,0.0098
0.0024,0.0024,0.0024,0.0024,0.0024,0.0024,0.0098,0.0708,0.0024,0.0122
0.0049,0.0024,0.0171,0.0415,0.0024,0.0024,0.0317,0.0854,0.0586,0.0513
0.0049,0.0024,0.0024,0.0024,0.0024,0.0024,0.022,0.061,0.0024,0.0024
0.0073,0.0024,0.0024,0.0024,0.0024,0.0024,0.0098,0.0684,0.0024,0.0171
0.0024,0.0024,0.0024,0.0024,0.0024,0.0024,0.0513,0.0659,0.0024,0.0537
0.0024,0.0024,0.0049,0.0024,0.0024,0.0024,0.0879,0.0977,0.0024,0.0122
0.0049,0.0024,0.0024,0.0024,0.0049,0.0024,0.0122,0.0537,0.0024,0.0122
0.0024,0.0024,0.0024,0.0024,0.0024,0.0024,0.0244,0.0562,0.0024,0.0122
0.0024,0.0024,0.0024,0.0024,0.0024,0.0024,0.022,0.0415,0.0024,0.0098
0.0024,0.0024,0.0024,0.0024,0.0024,0.0024,0.0024,0.0195,0.0244,0.0171
0.0024,0.0024,0.0024,0.0024,0.0024,0.0024,0.105,0.061,0.0024,0.0293
0.0024,0.0024,0.0024,0.0024,0.0024,0.0024,0.4028,0.0879,0.0024,0.0684
0.0024,0.0024,0.0024,0.0024,0.0024,0.0024,0.3906,0.0977,0.0024,0.0757
0.0024,0.0024,0.0049,0.0024,0.0024,0.0024,0.2271,0.105,0.0024,0.0391
0.0024,0.0049,0.0024,0.0024,0.0024,0.0024,0.0049,0.0317,0.0024,0.0024
0.0024,0.0024,0.0024,0.0024,0.0024,0.0024,0.0244,0.0464,0.0024,0.0293
0.0024,0.0024,0.0024,0.0024,0.0024,0.0024,0.0806,0.0586,0.0024,0.0684
0.0146,0.0024,0.0024,0.0024,0.0024,0.0024,0.0342,0.0513,0.0024,0.0586
0.0317,0.0024,0.0024,0.0024,0.0024,0.0024,0.7275,0.1978,0.0024,0.1147
0.0049,0.0024,0.0024,0.0024,0.0024,0.0024,0.3589,0.0903,0.0024,0.0586
0.022,0.0024,0.0024,0.0024,0.0024,0.0024,0.5615,0.1587,0.0024,0.105
0.0024,0.0024,0.0024,0.0024,0.0024,0.0024,0.1978,0.0537,0.0024,0.0073
0.0562,0.0024,0.0024,0.0024,0.0024,0.0073,0.4346,0.1074,0.0024,0.1001
0.0024,0.0024,0.0024,0.0024,0.0024,0.0024,0.0757,0.0513,0.0024,0.0171
0.0195,0.0024,0.0024,0.0024,0.0024,0.0024,0.0171,0.0146,0.0024,0.0024
0.0098,0.0024,0.0024,0.0024,0.0024,0.0024,0.0195,0.0195,0.0024,0.0098
0.0024,0.0024,0.0024,0.0024,0.0024,0.0024,0.0244,0.0098,0.0024,0.0049
0.022,0.0024,0.0024,0.0024,0.0024,0.0024,0.0098,0.0513,0.0049,0.0024
0.0024,0.0024,0.0024,0.0024,0.0024,0.0024,0.0684,0.0854,0.0024,0.0049
0.0024,0.0024,0.0024,0.0024,0.0024,0.0024,0.0928,0.1172,0.0024,0.0269
0.0024,0.0024,0.0024,0.0024,0.0024,0.0024,0.0781,0.1123,0.0024,0.0171
0.1587,0.0024,0.0024,0.0024,0.0024,0.0024,0.1074,0.1636,0.0024,0.0293
0.0024,0.0024,0.0024,0.0024,0.0024,0.0024,0.0659,0.0854,0.0024,0.0024
0.0439,0.0024,0.0024,0.0024,0.0024,0.0024,0.0024,0.0879,0.0073,0.0024
0.0098,0.0024,0.0024,0.0024,0.0024,0.0024,0.0903,0.0757,0.0024,0.0146
0.0024,0.0024,0.0024,0.0024,0.0049,0.0024,0.0757,0.061,0.0024,0.0024
0.0024,0.0024,0.0024,0.0024,0.0024,0.0024,0.0488,0.061,0.0024,0.0098
0.0024,0.0024,0.0049,0.0024,0.0024,0.0024,0.0732,0.0513,0.0024,0.0024
0.0073,0.0024,0.0024,0.0024,0.0024,0.0024,0.0464,0.0708,0.0024,0.0024
0.0049,0.0024,0.0024,0.0024,0.0024,0.0024,0.0488,0.0537,0.0024,0.0122
0.0024,0.0024,0.0024,0.0024,0.0024,0.0024,0.0488,0.0781,0.0024,0.0122
0.0269,0.0024,0.0024,0.0024,0.0049,0.0024,0.0024,0.0415,0.0024,0.0024
0.0049,0.0024,0.0024,0.0024,0.0024,0.0024,0.061,0.0366,0.0024,0.0024
0.0049,0.0024,0.0024,0.0024,0.0024,0.0024,0.0537,0.0635,0.0024,0.0073
0.0073,0.0024,0.0024,0.0024,0.0024,0.0024,0.0049,0.0391,0.0024,0.0146
0.0024,0.0024,0.0024,0.0024,0.0024,0.0024,0.0146,0.0562,0.0024,0.0073
0.0073,0.0024,0.0024,0.0024,0.0024,0.0024,0.0122,0.0586,0.0024,0.0122
0.0464,0.0024,0.0024,0.0024,0.0024,0.0024,0.0293,0.1294,0.0024,0.0488
0.0342,0.0024,0.0024,0.022,0.0024,0.0024,0.022,0.1343,0.0024,0.0391
0.0171,0.0024,0.0024,0.0024,0.0024,0.0024,0.0098,0.127,0.0024,0.0366
0.0195,0.0024,0.0024,0.0024,0.0024,0.0024,0.0024,0.1001,0.0024,0.0342
0.0024,0.0024,0.0024,0.0024,0.0024,0.0024,0.0073,0.1196,0.0024,0.0488
0.1294,0.0024,0.0024,0.0024,0.0024,0.0024,0.0171,0.1929,0.0024,0.0342
0.0024,0.0024,0.0024,0.0024,0.0024,0.0024,0.0415,0.2515,0.0024,0.0391
0.0586,0.0024,0.0098,0.0024,0.0024,0.0024,0.0903,0.2197,0.0024,0.0317
0.0464,0.0024,0.0586,0.0024,0.0024,0.0024,0.1294,0.166,0.0708,0.0415
0.0122,0.0024,0.0024,0.0024,0.0049,0.0024,0.1294,0.2344,0.0024,0.0488
0.0024,0.0024,0.0024,0.0024,0.0024,0.0024,0.0635,0.0854,0.0024,0.0366
0.061,0.0024,0.0024,0.0024,0.0024,0.0024,0.0659,0.188,0.0024,0.0293
0.0049,0.0024,0.0024,0.0024,0.0024,0.0024,0.0195,0.1294,0.0024,0.0415
0.0049,0.0024,0.0024,0.0024,0.0024,0.0024,0.0513,0.166,0.0024,0.0439
0.0024,0.0024,0.0024,0.0024,0.0024,0.0024,0.0586,0.1953,0.0024,0.0317
0.0024,0.0024,0.0024,0.0024,0.0024,0.0024,0.0171,0.105,0.0024,0.0317
0.1196,0.0024,0.0024,0.0024,0.0024,0.0024,0.0146,0.1416,0.0024,0.0439
0.1855,0.0024,0.0024,0.0024,0.0024,0.0024,0.0171,0.1172,0.0024,0.0293
0.1318,0.0024,0.0024,0.0024,0.0024,0.0024,0.0269,0.1074,0.0024,0.0317
0.0708,0.0024,0.0024,0.0024,0.0024,0.0024,0.0024,0.0684,0.0024,0.0244
0.0024,0.0024,0.0024,0.0024,0.0024,0.0024,0.0098,0.0415,0.0024,0.0732
0.0049,0.0024,0.0024,0.0024,0.0049,0.0024,0.0024,0.0488,0.0024,0.0464
0.0024,0.0024,0.0024,0.0024,0.0024,0.0024,0.0122,0.0806,0.0024,0.0732
0.022,0.0024,0.0024,0.0024,0.0049,0.0024,0.0122,0.0659,0.0024,0.0366
0.0049,0.0024,0.0049,0.0024,0.0024,0.0024,0.0317,0.0781,0.0024,0.0513
0.0366,0.0024,0.0024,0.0024,0.0024,0.0024,0.0537,0.1807,0.0024,0.0488
0.0854,0.0024,0.2637,0.0024,0.0024,0.0024,0.0024,0.0415,0.0049,0.0415
0.0098,0.0024,0.0024,0.0024,0.0024,0.0024,0.0024,0.0854,0.0024,0.0244
0.0049,0.0024,0.0024,0.0024,0.0024,0.0024,0.0098,0.0684,0.0024,0.0366
0.0073,0.0024,0.0024,0.0024,0.0024,0.0024,0.0342,0.0757,0.0024,0.0415
0.0024,0.0024,0.0024,0.0024,0.0024,0.0024,0.0391,0.0659,0.0024,0.0488
0.0024,0.0024,0.0049,0.0024,0.0024,0.0024,0.0024,0.0439,0.0024,0.0293
0.0098,0.0024,0.0024,0.0024,0.0024,0.0024,0.0122,0.0952,0.0024,0.0439
0.0024,0.0024,0.0024,0.0146,0.0024,0.0024,0.0024,0.105,0.0024,0.0464
0.0317,0.0024,0.0024,0.0024,0.0024,0.0024,0.0195,0.105,0.0024,0.0415
0.0391,0.0024,0.0024,0.0024,0.0024,0.0024,0.0366,0.1367,0.0024,0.0415
0.022,0.0024,0.0024,0.0024,0.0024,0.0024,0.0342,0.1001,0.0024,0.0293
0.0024,0.0024,0.0024,0.0024,0.0024,0.0024,0.0269,0.1318,0.0024,0.022
0.0049,0.0024,0.0024,0.0024,0.0024,0.0024,0.0195,0.0928,0.0024,0.0317
0.0366,0.0024,0.0049,0.0024,0.0024,0.0024,0.0684,0.1855,0.0024,0.0269
0.0586,0.0024,0.0024,0.0024,0.0049,0.0024,0.022,0.1367,0.0024,0.0415
0.0024,0.0024,0.0024,0.0024,0.0024,0.0024,0.0342,0.1074,0.0024,0.0293
0.0635,0.0024,0.0366,0.0024,0.0024,0.0024,0.1147,0.1831,0.0635,0.0513
0.0293,0.0024,0.0024,0.0024,0.0024,0.0024,0.0073,0.0488,0.0024,0.0415
0.0049,0.0024,0.0024,0.0024,0.0024,0.0024,0.0024,0.0464,0.0098,0.061
0.0342,0.0024,0.0073,0.0024,0.0024,0.0024,0.0244,0.0879,0.022,0.0513
0.144,0.0024,0.0024,0.0024,0.0024,0.0024,0.0195,0.1001,0.0024,0.0488
0.022,0.0024,0.0024,0.0024,0.0024,0.0024,0.0171,0.0708,0.0024,0.0342
0.0635,0.0024,0.0024,0.0024,0.0024,0.0024,0.0024,0.0928,0.0024,0.0464
0.0024,0.0024,0.0024,0.0024,0.0024,0.0024,0.0049,0.1392,0.0024,0.0415
0.0024,0.0024,0.0024,0.0024,0.0049,0.0024,0.0024,0.0391,0.0098,0.0415
0.0537,0.0024,0.0049,0.0024,0.0024,0.0024,0.0024,0.0781,0.1123,0.0391
0.0195,0.0024,0.0024,0.0024,0.0024,0.0024,0.0122,0.105,0.0977,0.0488
0.0488,0.0024,0.0464,0.0024,0.0024,0.0024,0.0024,0.1221,0.1001,0.0342
0.022,0.0024,0.0024,0.0024,0.0049,0.0024,0.0122,0.1172,0.1294,0.0513
0.0146,0.0024,0.0024,0.0024,0.0049,0.0024,0.0171,0.1099,0.1343,0.0415
0.0757,0.0024,0.0024,0.0024,0.0024,0.0024,0.0879,0.2051,0.1343,0.1831
0.0024,0.0024,0.0024,0.0024,0.0024,0.0024,0.0098,0.0659,0.1245,0.0415
0.0024,0.0024,0.0024,0.0024,0.0024,0.0024,0.0488,0.0903,0.1587,0.0464
0.0024,0.0024,0.0024,0.0024,0.0049,0.0024,0.0293,0.1001,0.1538,0.0122
0.0073,0.0024,0.0024,0.0024,0.0024,0.0024,0.0293,0.1074,0.1343,0.0024
0.0049,0.0024,0.0024,0.0024,0.0024,0.0024,0.0317,0.1074,0.1367,0.0024
0.0024,0.0024,0.0024,0.0024,0.0024,0.0024,0.0122,0.0781,0.1245,0.0024
0.0073,0.0024,0.0024,0.0024,0.0024,0.0024,0.0464,0.1147,0.1245,0.0122
0.0317,0.0024,0.0024,0.0024,0.0024,0.0024,0.0024,0.1172,0.1221,0.0024
0.1294,0.0024,0.0024,0.0024,0.0024,0.0024,0.0244,0.1538,0.1001,0.0098
0.0024,0.0024,0.0024,0.0024,0.0024,0.0024,0.0195,0.0146,0.0806,0.0122
0.0024,0.0024,0.0024,0.0024,0.0024,0.0024,0.0635,0.0244,0.083,0.0024
0.0024,0.0024,0.0024,0.0024,0.0024,0.0024,0.0391,0.0269,0.0757,0.0073
0.0024,0.0024,0.0024,0.0024,0.0024,0.0024,0.061,0.0171,0.0732,0.0073
0.0024,0.0024,0.0024,0.0024,0.0024,0.0024,0.022,0.0732,0.1245,0.0024
0.0024,0.0024,0.0024,0.0024,0.0024,0.0024,0.0171,0.0391,0.1196,0.0024
0.0024,0.0024,0.0024,0.0024,0.0024,0.0024,0.022,0.0562,0.1196,0.0049
0.0073,0.0024,0.0024,0.0024,0.0024,0.0024,0.0073,0.0317,0.0024,0.0024
0.0073,0.0024,0.0024,0.0024,0.0049,0.0024,0.0098,0.0171,0.0024,0.0073
0.0049,0.0024,0.1416,0.0024,0.0024,0.0024,0.0464,0.022,0.2148,0.0049
0.0024,0.0024,0.1294,0.0024,0.0024,0.0024,0.0684,0.0366,0.2246,0.0122
0.0024,0.0024,0.1025,0.0024,0.0049,0.0024,0.0562,0.0391,0.1563,0.0049
0.0024,0.0024,0.0024,0.0024,0.0024,0.0024,0.0024,0.0317,0.0024,0.0024
0.0024,0.0024,0.0024,0.0024,0.0024,0.0024,0.0024,0.0342,0.0024,0.0098
0.0073,0.0024,0.0293,0.0024,0.0024,0.0024,0.0317,0.0586,0.0024,0.0073
0.0024,0.0024,0.0024,0.0024,0.0024,0.0024,0.0293,0.0513,0.0024,0.0049
0.0024,0.0024,0.0024,0.0024,0.0024,0.0024,0.022,0.0513,0.0024,0.0073
0.0049,0.0024,0.0024,0.0024,0.0024,0.0024,0.0269,0.0537,0.0024,0.0049
0.0024,0.0024,0.0024,0.0024,0.0024,0.0024,0.0024,0.0391,0.0415,0.0195
0.0024,0.0024,0.0024,0.0024,0.0024,0.0024,0.0024,0.022,0.0024,0.0146
0.0073,0.0024,0.0024,0.0024,0.0024,0.0024,0.0024,0.0464,0.0024,0.0195
0.0024,0.0024,0.0024,0.0024,0.0024,0.0024,0.0171,0.0366,0.0488,0.0293
0.0024,0.0024,0.0024,0.0024,0.0024,0.0024,0.1831,0.0928,0.0024,0.0293
0.0073,0.0024,0.0024,0.0024,0.0024,0.0024,0.188,0.0684,0.0024,0.0317
0.0146,0.0024,0.0024,0.0024,0.0024,0.0024,0.3247,0.1172,0.0024,0.0684
0.0024,0.0024,0.0024,0.0024,0.0024,0.0024,0.0122,0.0439,0.0024,0.0195
0.0024,0.0024,0.0024,0.0024,0.0024,0.0024,0.0781,0.0635,0.0024,0.0098
0.0024,0.0024,0.0024,0.0024,0.0024,0.0024,0.0708,0.061,0.0024,0.0049
0.0024,0.0024,0.0024,0.0024,0.0024,0.0024,0.0024,0.061,0.0024,0.0024
0.0024,0.0024,0.0024,0.0024,0.0024,0.0024,0.0171,0.0659,0.0024,0.0171
0.0024,0.0024,0.0024,0.0024,0.0024,0.0024,0.1563,0.0464,0.0024,0.0488
0.0024,0.0024,0.0024,0.0024,0.0024,0.0024,0.1733,0.061,0.0024,0.0562
0.0146,0.0024,0.0024,0.0024,0.0024,0.0024,0.4614,0.1563,0.0024,0.0879
0.0024,0.0024,0.0024,0.0024,0.0024,0.0024,0.2002,0.083,0.0024,0.0464
0.0024,0.0024,0.0024,0.0024,0.0024,0.0024,0.0903,0.0293,0.0024,0.0195
0.0073,0.0024,0.0024,0.0024,0.0024,0.0024,0.0977,0.0293,0.0024,0.0415
0.0659,0.0024,0.0049,0.0024,0.0024,0.0024,0.1636,0.0293,0.0146,0.0562
0.0049,0.0024,0.0024,0.0024,0.0024,0.0024,0.0293,0.0464,0.0024,0.0342
0.0024,0.0024,0.0024,0.0024,0.0024,0.0024,0.0366,0.0146,0.0024,0.0317
0.0024,0.0024,0.0024,0.0024,0.0024,0.0024,0.0171,0.0171,0.0024,0.0391
0.0122,0.0024,0.0024,0.0024,0.0049,0.0024,0.083,0.249,0.0024,0.022
0.0024,0.0024,0.0024,0.0024,0.0024,0.0024,0.0293,0.0928,0.0024,0.0098
0.0024,0.0024,0.0024,0.0024,0.0024,0.0024,0.0977,0.0732,0.0024,0.0171
0.0024,0.0024,0.0024,0.0024,0.0049,0.0024,0.1563,0.144,0.0024,0.0342
0.0513,0.0024,0.0024,0.0024,0.0024,0.0024,0.0269,0.105,0.0024,0.0049
0.0854,0.0024,0.0024,0.0024,0.0024,0.0024,0.0586,0.1025,0.0024,0.0098
0.0073,0.0024,0.0024,0.0024,0.0024,0.0024,0.0952,0.0464,0.0024,0.0098
0.0024,0.0024,0.0024,0.0024,0.0024,0.0024,0.0024,0.0928,0.0024,0.0293
0.0098,0.0024,0.0024,0.0024,0.0024,0.0024,0.0513,0.0854,0.0024,0.0073
0.0122,0.0024,0.0024,0.0024,0.0049,0.0024,0.0342,0.0806,0.0024,0.0024
0.0171,0.0024,0.0024,0.0024,0.0024,0.0024,0.0464,0.0757,0.0024,0.0024
0.0024,0.0024,0.0024,0.0024,0.0024,0.0024,0.1147,0.0586,0.0024,0.0024
0.0073,0.0024,0.0024,0.0024,0.0024,0.0024,0.1001,0.0952,0.0024,0.0098
0.0073,0.0024,0.0024,0.0024,0.0024,0.0024,0.0366,0.0928,0.0024,0.0024
0.0073,0.0024,0.0024,0.0024,0.0024,0.0024,0.0439,0.0659,0.0024,0.0122
0.0024,0.0024,0.0024,0.0024,0.0024,0.0024,0.0317,0.061,0.0024,0.0244
0.0024,0.0024,0.0024,0.0024,0.0024,0.0024,0.0439,0.0488,0.0024,0.0171
0.0024,0.0024,0.0024,0.0024,0.0024,0.0024,0.061,0.0513,0.0024,0.0513
0.0024,0.0024,0.0049,0.0024,0.0024,0.0024,0.0024,0.0488,0.0024,0.0024
0.0024,0.0024,0.0024,0.0024,0.0049,0.0024,0.0098,0.0586,0.0024,0.0122
0.0098,0.0024,0.0024,0.0024,0.0024,0.0024,0.0586,0.127,0.0024,0.0488
0.0171,0.0024,0.0024,0.0024,0.0024,0.0024,0.0122,0.1489,0.0024,0.0415
0.0757,0.0024,0.0024,0.0024,0.0024,0.0024,0.0049,0.0928,0.0024,0.0684
0.0195,0.0024,0.0024,0.0024,0.0024,0.0024,0.0293,0.1367,0.0024,0.0586
0.0049,0.0024,0.0024,0.0049,0.0684,0.0024,0.0024,0.1392,0.0024,0.0366
0.0195,0.0024,0.0024,0.0024,0.0024,0.0024,0.0073,0.0977,0.0024,0.0391
0.0171,0.0024,0.0024,0.0049,0.0024,0.0024,0.0244,0.2173,0.0024,0.0317
0.1074,0.0024,0.0024,0.0024,0.0024,0.0024,0.0317,0.1489,0.0024,0.0342
0.0024,0.0024,0.0024,0.0024,0.0024,0.0024,0.0049,0.0806,0.0024,0.0342
0.0024,0.0024,0.0024,0.0024,0.0024,0.0024,0.0659,0.1123,0.0024,0.0488
0.0024,0.0024,0.0024,0.0024,0.0024,0.0024,0.0073,0.0708,0.0024,0.0366
0.0024,0.0024,0.0024,0.0024,0.0024,0.0024,0.0024,0.061,0.0024,0.0488
0.0024,0.0024,0.0024,0.0024,0.0024,0.0024,0.0903,0.1538,0.0024,0.0439
0.0366,0.0024,0.0024,0.0024,0.0024,0.0024,0.0415,0.1025,0.0024,0.0439
0.0195,0.0024,0.0024,0.0024,0.0024,0.0024,0.0244,0.1001,0.0024,0.0366
0.0024,0.0024,0.0024,0.0024,0.0024,0.0024,0.0195,0.1343,0.0024,0.0562
0.022,0.0024,0.0024,0.0024,0.0024,0.0024,0.0366,0.1416,0.0024,0.0317
0.0024,0.0024,0.0024,0.0024,0.0024,0.0024,0.0415,0.1416,0.0024,0.022
0.0659,0.0024,0.0024,0.0024,0.0024,0.0024,0.0024,0.1074,0.0024,0.0366
0.0098,0.0024,0.0024,0.0024,0.0024,0.0024,0.0122,0.1147,0.0024,0.0391
0.1685,0.0024,0.0024,0.0024,0.0024,0.0024,0.0122,0.1221,0.0024,0.0391
0.0024,0.0024,0.0024,0.0024,0.0049,0.0024,0.0024,0.0244,0.0024,0.0586
0.0024,0.0024,0.0024,0.0024,0.0024,0.0024,0.0146,0.0806,0.0024,0.0586
0.0049,0.0024,0.0024,0.0024,0.0024,0.0024,0.0024,0.0537,0.0024,0.0439
0.0024,0.0024,0.0024,0.0024,0.0024,0.0024,0.0073,0.0806,0.0024,0.0317
0.0024,0.0024,0.0024,0.0024,0.0024,0.0024,0.0024,0.0244,0.0024,0.0684
0.0024,0.0024,0.0024,0.0024,0.0024,0.0024,0.022,0.083,0.0024,0.0562
0.0024,0.0024,0.0024,0.0024,0.0024,0.0024,0.0073,0.061,0.0024,0.0464
0.1465,0.0024,0.0659,0.0024,0.0024,0.0024,0.2686,0.1538,0.0171,0.0464
0.0244,0.0024,0.0024,0.0024,0.0024,0.0024,0.1392,0.0977,0.0024,0.0659
0.0293,0.0024,0.0024,0.0024,0.0024,0.0024,0.0342,0.1147,0.0024,0.0513
0.0098,0.0024,0.0024,0.0024,0.0024,0.0024,0.0073,0.0952,0.0024,0.0415
0.0024,0.0024,0.0024,0.0024,0.0024,0.0024,0.0024,0.1099,0.0024,0.0391
0.022,0.0024,0.0024,0.0024,0.0024,0.0024,0.0171,0.0977,0.0024,0.0537
0.0537,0.0024,0.0024,0.0024,0.0024,0.0024,0.0464,0.1831,0.0024,0.0513
0.0024,0.0024,0.0024,0.0024,0.0024,0.0024,0.0781,0.1245,0.0024,0.0391
0.0024,0.0024,0.0024,0.0024,0.0024,0.0024,0.0293,0.105,0.0024,0.0366
0.0049,0.0024,0.0024,0.0024,0.0024,0.0024,0.0098,0.0952,0.0024,0.0293
0.0024,0.0024,0.0024,0.0024,0.0024,0.0024,0.0024,0.083,0.0024,0.0366
0.0098,0.0024,0.0024,0.0024,0.0024,0.0024,0.0757,0.1611,0.0024,0.0366
0.0659,0.0024,0.0488,0.0293,0.0024,0.0024,0.0342,0.0903,0.0024,0.0464
0.0708,0.0024,0.0024,0.0049,0.0024,0.0024,0.0659,0.1929,0.1904,0.0415
0.0024,0.0024,0.0024,0.0024,0.0024,0.0024,0.0024,0.0854,0.0024,0.0537
0.0024,0.0024,0.0024,0.0024,0.0024,0.0024,0.0171,0.1294,0.0024,0.0269
0.0024,0.0024,0.0024,0.0024,0.0024,0.0024,0.0073,0.0879,0.0024,0.0317
0.0122,0.0024,0.0024,0.0024,0.0024,0.0024,0.0317,0.0903,0.0024,0.0317
0.1538,0.0024,0.0024,0.0024,0.0024,0.0024,0.0488,0.1685,0.0024,0.0317
0.0024,0.0024,0.0024,0.0024,0.0024,0.0024,0.0537,0.127,0.0024,0.0269
0.0024,0.0024,0.0024,0.0024,0.0024,0.0024,0.0464,0.0854,0.0024,0.0244
0.0024,0.0024,0.0024,0.0024,0.0024,0.0024,0.0586,0.1221,0.0024,0.022
0.0024,0.0024,0.0024,0.0024,0.0024,0.0024,0.0391,0.0903,0.0024,0.0122
0.0024,0.0024,0.0024,0.0024,0.0024,0.0024,0.0366,0.0806,0.0024,0.0171
0.0488,0.0024,0.0757,0.0024,0.0024,0.0024,0.0415,0.1172,0.0879,0.1245
0.0098,0.0024,0.0586,0.0024,0.0024,0.0024,0.0146,0.0488,0.0488,0.0732
0.0024,0.0024,0.0244,0.0024,0.0024,0.0024,0.0073,0.0464,0.0293,0.0659
0.0024,0.0024,0.0024,0.0024,0.0024,0.0024,0.0024,0.0146,0.0342,0.0806
0.0195,0.0024,0.0024,0.0024,0.0024,0.0024,0.0122,0.0562,0.2563,0.0806
0.1685,0.0024,0.0024,0.0024,0.0024,0.0024,0.0317,0.1807,0.0342,0.0781
0.1782,0.0024,0.0024,0.0024,0.0024,0.0024,0.0195,0.1099,0.0024,0.0464
0.0024,0.0024,0.0024,0.0049,0.0024,0.0024,0.0024,0.0537,0.0024,0.0415
0.0146,0.0269,0.0024,0.0024,0.0024,0.0024,0.0415,0.188,0.022,0.0635
0.0024,0.0024,0.0024,0.0024,0.0024,0.0024,0.0024,0.1636,0.0024,0.0415
0.0122,0.0049,0.0024,0.0024,0.0024,0.0024,0.0098,0.0708,0.0024,0.0464
0.0073,0.0024,0.0024,0.0024,0.0024,0.0024,0.0195,0.0586,0.0146,0.061
0.0024,0.0024,0.0024,0.0024,0.0024,0.0024,0.0024,0.0562,0.0098,0.0464
0.0024,0.0024,0.0024,0.0024,0.0024,0.0024,0.0024,0.0977,0.0757,0.0391
0.1294,0.0024,0.0024,0.0024,0.0024,0.0024,0.0146,0.0732,0.1221,0.0562
0.0122,0.0024,0.0024,0.0024,0.0024,0.0024,0.0195,0.1123,0.0977,0.0391
0.0757,0.0024,0.0024,0.0024,0.0024,0.0024,0.0146,0.1245,0.144,0.0708
0.1123,0.0024,0.0024,0.0024,0.0024,0.0024,0.0366,0.2051,0.1172,0.0488
0.1147,0.0024,0.0024,0.0024,0.0024,0.0024,0.0659,0.2002,0.1318,0.2075
0.0073,0.0024,0.0024,0.0024,0.0024,0.0024,0.0171,0.1001,0.1367,0.0513
0.0024,0.0024,0.0024,0.0024,0.0024,0.0024,0.0122,0.061,0.1074,0.0439
0.0171,0.0024,0.0024,0.0024,0.0024,0.0073,0.0928,0.1196,0.2051,0.061
0.0488,0.0024,0.0024,0.0024,0.0024,0.0073,0.1416,0.2759,0.1465,0.2197
0.0049,0.0024,0.0024,0.0024,0.0024,0.0024,0.0024,0.0757,0.1123,0.022
0.0049,0.0024,0.0024,0.0024,0.0024,0.0024,0.0439,0.1099,0.1392,0.0024
0.0024,0.0024,0.0024,0.0024,0.0024,0.0024,0.0146,0.0684,0.1245,0.0098
0.0024,0.0024,0.0024,0.0024,0.0024,0.0024,0.0098,0.0708,0.127,0.0073
0.0195,0.0024,0.0024,0.0024,0.0024,0.0024,0.0684,0.1025,0.1514,0.0049
0.0122,0.0024,0.0024,0.0024,0.0024,0.0024,0.0293,0.0781,0.1221,0.0317
0.0024,0.0024,0.0049,0.0024,0.0024,0.0024,0.0757,0.0977,0.1099,0.0024
0.0024,0.0024,0.0024,0.0024,0.0024,0.0024,0.0415,0.0195,0.1074,0.0024
0.0024,0.0024,0.0024,0.0024,0.0024,0.0024,0.0122,0.0659,0.1416,0.0171
0.0049,0.0024,0.0024,0.0024,0.0024,0.0024,0.0293,0.0854,0.1245,0.0024
0.0024,0.0024,0.0024,0.0024,0.0024,0.0024,0.1001,0.1001,0.1196,0.0049
0.0024,0.0024,0.0024,0.0024,0.0024,0.0024,0.0024,0.061,0.144,0.0024
0.0049,0.0024,0.0024,0.0024,0.0024,0.0024,0.0073,0.0952,0.1001,0.0024
0.0098,0.0024,0.0024,0.0024,0.0024,0.0024,0.0366,0.1343,0.105,0.0024
0.0342,0.0024,0.0024,0.0024,0.0024,0.0024,0.0879,0.1514,0.1099,0.2002
0.0024,0.0024,0.0024,0.0024,0.0024,0.0024,0.022,0.1563,0.0122,0.0073
0.0024,0.0024,0.0024,0.0024,0.1123,0.0269,0.1367,0.1709,0.1758,0.0195
0.0244,0.0024,0.0024,0.0024,0.0024,0.0024,0.022,0.1001,0.1074,0.0024
0.0317,0.0024,0.0024,0.0024,0.0024,0.0024,0.0073,0.0806,0.0952,0.0024
0.0024,0.0024,0.0024,0.0024,0.0024,0.0024,0.0098,0.0854,0.105,0.0024
0.0024,0.0024,0.0024,0.0024,0.0049,0.0024,0.0049,0.0537,0.1196,0.0024
0.022,0.0024,0.0024,0.0024,0.0024,0.0024,0.0366,0.1343,0.127,0.0024
0.0024,0.0024,0.0024,0.0024,0.0024,0.0024,0.0342,0.127,0.1025,0.0024
0.0977,0.0024,0.0024,0.0024,0.0024,0.0024,0.0781,0.2588,1.0547,0.1416
0.0952,0.0024,0.0024,0.0024,0.0439,0.0024,0.1587,0.415,0.1318,0.0024
0.061,0.0024,0.0146,0.0024,0.0024,0.0024,0.2002,0.2271,0.1221,0.0122
0.2124,0.0024,0.0024,0.0024,0.0024,0.0024,0.0024,0.1392,0.0488,0.0024
0.0195,0.0024,0.0024,0.0024,0.0024,0.0024,0.0122,0.105,0.0513,0.0024
0.0073,0.0024,0.0024,0.0024,0.0024,0.0024,0.0317,0.1367,0.0122,0.0024
0.0122,0.0024,0.0024,0.0024,0.0024,0.0024,0.0928,0.1733,0.022,0.0024
0.0024,0.0024,0.0024,0.0024,0.0024,0.0024,0.0049,0.0977,0.0024,0.0024
0.0049,0.0024,0.0024,0.0024,0.0024,0.0024,0.0879,0.1245,0.0024,0.0317
0.0073,0.0024,0.0024,0.0024,0.0024,0.0024,0.0342,0.1099,0.0391,0.0024
0.1245,0.0024,0.0269,0.0024,0.0024,0.0024,0.0391,0.1636,0.0977,0.0098
0.1074,0.0024,0.0024,0.0024,0.0024,0.0024,0.0171,0.1758,0.105,0.0024
0.1245,0.0024,0.0024,0.0049,0.0024,0.0024,0.022,0.1685,0.105,0.0049
0.1953,0.1294,0.0024,0.0024,0.0024,0.0024,0.0171,0.1611,0.105,0.0195
0.0098,0.0024,0.0024,0.0024,0.0049,0.0024,0.0024,0.1123,0.0903,0.0146
0.0073,0.0024,0.0024,0.0024,0.0024,0.0024,0.022,0.1831,0.0903,0.0049
0.0024,0.0024,0.0024,0.0024,0.0024,0.0024,0.0024,0.1831,0.1221,0.0293
0.0024,0.0024,0.0024,0.0024,0.0024,0.0024,0.1392,0.1514,0.1172,0.0024
0.0049,0.0024,0.0024,0.0024,0.0024,0.0024,0.0439,0.0952,0.1147,0.0024
0.0024,0.0024,0.0024,0.0024,0.0024,0.0024,0.0537,0.1172,0.1367,0.0073
0.0024,0.0024,0.0024,0.0073,0.0024,0.0024,0.0073,0.0439,0.1172,0.0098
0.0024,0.0024,0.0024,0.0024,0.0024,0.0024,0.0732,0.2881,0.127,0.022
0.0024,0.0024,0.0024,0.0024,0.0024,0.0024,0.0195,0.1953,0.0977,0.0269
0.0024,0.0024,0.0024,0.0024,0.0024,0.0024,0.0439,0.1465,0.0977,0.0708
0.0049,0.0024,0.0024,0.0024,0.0049,0.0024,0.0391,0.1343,0.0928,0.0464
0.0024,0.0024,0.0024,0.0024,0.0024,0.0024,0.0024,0.022,0.1074,0.0317
0.0049,0.0024,0.0024,0.0024,0.0024,0.0024,0.0171,0.1538,0.1099,0.0146
0.0659,0.0024,0.0024,0.0024,0.0024,0.0024,0.1221,0.3931,0.127,0.0269
0.0366,0.0024,0.0024,0.0024,0.0049,0.0024,0.0781,0.1733,0.293,0.0317
0.0781,0.0024,0.0171,0.0391,0.0024,0.0122,0.1855,0.2612,0.1538,0.0293
0.0024,0.0024,0.0562,0.0024,0.0073,0.0024,0.0171,0.0903,0.083,0.0269
0.0293,0.0024,0.0024,0.0024,0.0024,0.0024,0.0415,0.188,0.0146,0.0171
0.0146,0.0024,0.0024,0.0024,0.0024,0.0024,0.1074,0.2808,0.0049,0.0098
0.0146,0.0024,0.0024,0.0024,0.0024,0.0024,0.0635,0.2783,0.0024,0.022
0.022,0.0024,0.0049,0.0024,0.0024,0.0024,0.1538,0.3809,0.0024,0.0024
0.0024,0.0024,0.0024,0.0024,0.0024,0.0024,0.0049,0.2344,0.0024,0.0098
0.0366,0.0024,0.0024,0.0024,0.0024,0.0024,0.0562,0.2441,0.0024,0.0171
0.0098,0.0024,0.0024,0.0342,0.0024,0.0024,0.0269,0.1929,0.0024,0.0171
0.0195,0.0024,0.0049,0.0024,0.0024,0.0024,0.0195,0.2002,0.0024,0.0024
0.0024,0.0024,0.0024,0.0024,0.0024,0.0024,0.0146,0.1587,0.0024,0.0195
0.9741,0.6592,1.4526,0.4077,0.0732,0.1025,1.4502,2.1777,0.1514,0.144
0.0464,0.0024,0.0024,0.0024,0.0024,0.0024,0.0757,0.2344,0.9912,0.0073
0.3052,0.0024,0.0024,0.0024,0.0024,0.0024,0.0024,0.1001,0.083,0.0342
0.0024,0.0024,0.0024,0.0024,0.0024,0.0024,0.0024,0.0122,0.0708,0.0024
0.1294,0.0488,0.0635,0.293,0.022,0.0317,1.0864,0.708,0.1514,0.0073
0.1855,0.0024,0.0024,0.0024,0.0024,0.0024,0.0024,0.0659,0.0708,0.0024
0.1099,0.0024,0.0024,0.0024,0.0024,0.0024,0.0439,0.0439,0.0293,0.0024
0.0806,0.0024,0.0024,0.0024,0.0024,0.0024,0.0269,0.0317,0.0391,0.0024
0.1074,0.0024,0.0024,0.0024,0.0024,0.0024,0.0269,0.0439,0.0244,0.0024
0.1001,0.0391,0.0659,0.083,0.0024,0.0024,0.2661,0.6006,1.6846,0.1563
0.0439,0.0024,0.0024,0.0024,0.0024,0.0024,0.188,0.3003,0.0537,0.0049
0.0757,0.061,0.0049,0.0024,0.0024,0.0024,0.1587,0.5005,0.0757,0.0024
0.2368,0.0244,0.1953,0.0464,0.0171,0.0659,1.3232,0.6152,0.6714,0.21
0.0439,0.0293,0.0024,0.0024,0.0024,0.0024,0.0024,0.2295,0.0806,0.0024
0.0732,0.0439,0.0024,0.0024,0.0024,0.0024,0.0024,0.3516,0.0781,0.0098
0.0244,0.0024,0.0024,0.0024,0.0024,0.0024,0.0317,0.083,0.1221,0.0024
0.0024,0.0024,0.0024,0.0024,0.0024,0.0024,0.0024,0.0146,0.1221,0.0024
0.1001,0.0024,0.0024,0.0024,0.0024,0.0024,0.0073,0.0928,0.4272,0.0024
0.0024,0.0024,0.0024,0.0024,0.0024,0.0024,0.0293,0.0269,0.0024,0.0098
0.0049,0.0024,0.0024,0.0024,0.0024,0.0024,0.0391,0.0317,0.0024,0.0024
0.0024,0.0024,0.0024,0.0024,0.0024,0.0024,0.0391,0.0342,0.0024,0.0073
0.0049,0.0024,0.0024,0.0024,0.0024,0.0024,0.0293,0.0366,0.0122,0.0122
0.0024,0.0024,0.0024,0.0024,0.0024,0.0024,0.0024,0.0366,0.0073,0.0024
0.0024,0.0024,0.0024,0.0024,0.0024,0.0024,0.022,0.0342,0.0024,0.0098
0.0024,0.0024,0.0024,0.0024,0.0049,0.0024,0.0391,0.061,0.0024,0.0024
0.0049,0.0024,0.0024,0.0024,0.0024,0.0024,0.0049,0.061,0.0024,0.0073
0.0024,0.0024,0.0024,0.0024,0.0024,0.0024,0.0098,0.0439,0.0024,0.0098
0.0024,0.0024,0.0024,0.0024,0.0024,0.0024,0.0269,0.0464,0.0024,0.0269
0.0049,0.0073,0.1367,0.0024,0.0024,0.0024,0.0269,0.0439,0.083,0.0269
0.0024,0.0024,0.0024,0.0024,0.0024,0.0024,0.0952,0.0732,0.0317,0.0415
0.0073,0.0024,0.0024,0.0024,0.0024,0.0024,0.2417,0.0757,0.0024,0.0391
0.0024,0.0024,0.0244,0.0024,0.0024,0.0024,0.3369,0.0977,0.0024,0.0464
0.0024,0.0024,0.0024,0.0073,0.0049,0.0024,0.2686,0.0952,0.0024,0.0537
0.0024,0.0024,0.0342,0.0024,0.0024,0.0024,0.166,0.0854,0.0024,0.0464
0.0024,0.0024,0.0024,0.0024,0.0024,0.0024,0.2979,0.0952,0.0024,0.0562
0.0024,0.0024,0.0024,0.0024,0.0024,0.0024,0.2954,0.0977,0.0024,0.0439
0.0024,0.0024,0.0024,0.0024,0.0024,0.0024,0.0024,0.0854,0.0024,0.0269
0.0073,0.0024,0.0024,0.0024,0.0024,0.0024,0.0293,0.0708,0.0024,0.0049
0.0024,0.0024,0.0024,0.0024,0.0024,0.0024,0.0073,0.0464,0.0024,0.0122
0.0024,0.0024,0.0024,0.0024,0.0024,0.0024,0.1001,0.061,0.0024,0.0269
0.0024,0.0024,0.0024,0.0024,0.0024,0.0024,0.0757,0.0439,0.0024,0.0439
0.0024,0.0024,0.0024,0.0024,0.0049,0.0024,0.3296,0.0781,0.0024,0.0684
0.1001,0.0024,0.0024,0.0024,0.0024,0.0024,0.4077,0.1172,0.0024,0.0854
0.0439,0.0024,0.0024,0.0024,0.0024,0.0171,0.8081,0.2539,0.0098,0.2808
0.0269,0.0024,0.0024,0.0024,0.0024,0.0024,0.6079,0.166,0.0024,0.1123
0.0244,0.0024,0.0024,0.0024,0.0024,0.0024,0.3687,0.1025,0.0024,0.1099
0.1587,0.0024,0.0024,0.0024,0.0024,0.0024,0.0806,0.0659,0.0024,0.0464
0.0122,0.0024,0.0024,0.0024,0.0024,0.0024,0.0098,0.1001,0.0024,0.0513
0.0146,0.0024,0.0024,0.0024,0.0049,0.0024,0.0073,0.0684,0.0024,0.0317
0.0171,0.0024,0.0024,0.0024,0.0024,0.0024,0.0024,0.0244,0.0024,0.0464
0.0024,0.0024,0.0024,0.0024,0.0024,0.0024,0.0415,0.0317,0.0024,0.061
0.2002,0.0024,0.0024,0.0024,0.0024,0.0024,0.0537,0.2466,0.0024,0.0586
0.1074,0.0024,0.0024,0.0024,0.0024,0.0024,0.0098,0.1489,0.0024,0.0537
0.0537,0.0024,0.2759,0.0024,0.0024,0.0024,0.0024,0.0366,0.0024,0.0391
0.0024,0.0024,0.0024,0.0024,0.0024,0.0024,0.0098,0.0513,0.0024,0.0317
0.0073,0.0024,0.0024,0.0024,0.0049,0.0024,0.0317,0.0635,0.0024,0.0439
0.0024,0.0024,0.0024,0.0024,0.0024,0.0024,0.0464,0.1367,0.0024,0.0488
0.0049,0.0024,0.0024,0.0024,0.0024,0.0024,0.0024,0.0879,0.0024,0.0391
0.0049,0.0024,0.0024,0.0024,0.0024,0.0024,0.0171,0.105,0.0024,0.0342
0.0049,0.0024,0.0024,0.0024,0.0024,0.0024,0.0049,0.0806,0.0024,0.0391
0.0244,0.0024,0.0024,0.0024,0.0024,0.0024,0.0146,0.1172,0.0024,0.0464
0.0073,0.0024,0.0024,0.0024,0.0024,0.0024,0.0146,0.0903,0.0024,0.0317
0.0659,0.0024,0.0024,0.0024,0.0024,0.0024,0.0146,0.105,0.0024,0.0415
0.0024,0.0024,0.0024,0.0024,0.0024,0.0024,0.0317,0.0708,0.0024,0.0195
0.0024,0.0024,0.0024,0.0024,0.0024,0.0024,0.0073,0.1221,0.0024,0.0146
0.0024,0.0024,0.0024,0.0024,0.0024,0.0024,0.0146,0.0684,0.0024,0.0269
0.0024,0.0024,0.0024,0.0024,0.0024,0.0024,0.0293,0.0879,0.0024,0.0098
0.271,0.0024,0.0024,0.0024,0.0024,0.0024,0.0122,0.2222,0.0024,0.0342
0.0098,0.0024,0.0024,0.0024,0.0024,0.0024,0.0073,0.0269,0.0342,0.0513
0.0073,0.0024,0.0024,0.0024,0.0024,0.0024,0.0024,0.0464,0.0146,0.061
0.0049,0.0024,0.0024,0.0024,0.0024,0.0024,0.0024,0.0464,0.0049,0.0635
0.0024,0.0024,0.0024,0.0024,0.0049,0.0024,0.0415,0.0586,0.0024,0.0464
0.0073,0.0024,0.0024,0.0024,0.0024,0.0024,0.0195,0.0537,0.0024,0.0415
0.0073,0.0024,0.0024,0.0024,0.0049,0.0024,0.0073,0.0659,0.0024,0.0415
0.0781,0.0024,0.0024,0.0049,0.0024,0.0024,0.0024,0.1001,0.1099,0.0391
0.0024,0.0024,0.0024,0.0024,0.0171,0.0024,0.0293,0.0732,0.1465,0.0513
0.1685,0.0024,0.0024,0.0024,0.0024,0.0024,0.0122,0.166,0.1172,0.0513
0.0049,0.0024,0.0024,0.0024,0.0024,0.0024,0.0024,0.0806,0.1074,0.0464
0.0317,0.0024,0.0024,0.0024,0.0024,0.0024,0.0415,0.1392,0.1489,0.0586
0.0098,0.0024,0.0024,0.0024,0.0024,0.0024,0.022,0.1221,0.1147,0.061
0.0098,0.0024,0.0024,0.0024,0.0024,0.0024,0.0366,0.105,0.1489,0.0513
0.0293,0.0024,0.0024,0.0024,0.0024,0.0024,0.0415,0.0903,0.1343,0.0269
0.0024,0.0024,0.0024,0.0024,0.0024,0.0024,0.0244,0.0854,0.1196,0.022
0.0024,0.0024,0.0024,0.0024,0.0024,0.0024,0.0122,0.0854,0.1343,0.0049
0.0073,0.0024,0.0024,0.0024,0.0024,0.0024,0.0366,0.1025,0.1196,0.0024
0.0024,0.0024,0.0024,0.0024,0.0024,0.0024,0.0488,0.0757,0.1611,0.0098
0.0024,0.0024,0.0049,0.0024,0.0024,0.0024,0.0293,0.0903,0.144,0.0024
0.0024,0.0024,0.0024,0.0024,0.0024,0.0024,0.0439,0.0195,0.1172,0.0049
0.0024,0.0024,0.0024,0.0024,0.0024,0.0024,0.0513,0.0366,0.0977,0.0024
0.0024,0.0024,0.0024,0.0024,0.0024,0.0024,0.061,0.0415,0.0977,0.0146
0.0024,0.0024,0.0024,0.0024,0.0024,0.0024,0.0659,0.022,0.0903,0.0073
0.0342,0.0024,0.0024,0.0024,0.0171,0.0122,0.1294,0.354,0.1514,0.0269
0.0024,0.0024,0.0024,0.0024,0.0024,0.0024,0.0732,0.0928,0.1245,0.0024
0.0024,0.0024,0.0024,0.0024,0.0024,0.0024,0.0366,0.0586,0.1123,0.0024
0.0049,0.0024,0.0024,0.0024,0.0024,0.0024,0.0586,0.144,0.105,0.0024
0.0024,0.0024,0.0024,0.0024,0.0024,0.0024,0.0464,0.144,0.1099,0.0024
0.0049,0.0024,0.0024,0.0024,0.0024,0.0024,0.0635,0.1196,0.1099,0.0024
0.0049,0.0024,0.0024,0.0024,0.0024,0.0024,0.0415,0.2441,0.0293,0.3296
0.0049,0.0024,0.0024,0.0024,0.0024,0.0024,0.0195,0.1074,0.0293,0.0293
0.0049,0.0024,0.0024,0.0024,0.0024,0.0024,0.0464,0.1538,0.022,0.0024
0.0024,0.0024,0.0024,0.0024,0.0024,0.0024,0.0244,0.1782,0.0146,0.0024
0.0757,0.4639,0.8203,0.0366,0.083,0.0146,0.061,0.0732,0.3857,0.0928
0.0342,0.0024,0.0024,0.0024,0.0024,0.0024,0.0024,0.0806,0.083,0.0024
0.0269,0.0024,0.0024,0.0024,0.0024,0.0024,0.0073,0.1099,0.1001,0.0024
0.1172,0.0024,0.0024,0.0024,0.0024,0.0024,0.0317,0.1025,0.0977,0.0024
0.1074,0.0024,0.0024,0.0024,0.0024,0.0024,0.0488,0.1367,0.105,0.0024
0.0098,0.0024,0.0024,0.0024,0.0049,0.0024,0.0098,0.0781,0.1001,0.0024
0.0024,0.0024,0.0024,0.0024,0.0024,0.0024,0.0293,0.1025,0.1172,0.0024
0.0024,0.0024,0.0024,0.0024,0.0024,0.0024,0.0732,0.1782,0.1416,0.0024
0.0024,0.0024,0.0024,0.0024,0.0024,0.0024,0.0195,0.1123,0.0464,0.0024
0.0073,0.0024,0.0024,0.0024,0.0024,0.0024,0.0146,0.1318,0.0171,0.0024
0.1025,0.0024,0.0024,0.0024,0.0024,0.0024,0.0684,0.1367,0.0073,0.0049
0.083,0.0024,0.0024,0.0024,0.0024,0.0024,0.1001,0.1685,0.0024,0.0073
0.0024,0.0024,0.0024,0.0024,0.0049,0.0024,0.0024,0.1099,0.1538,0.0195
0.0049,0.0024,0.0024,0.0024,0.0024,0.0024,0.0024,0.1953,0.1318,0.0098
0.0146,0.0024,0.0024,0.0024,0.0024,0.0024,0.0024,0.1758,0.1099,0.0244
0.0024,0.0024,0.0391,0.0854,0.1392,0.0659,0.0195,0.0684,0.1245,0.0024
0.0073,0.0024,0.0024,0.0024,0.0024,0.0024,0.0415,0.1489,0.083,0.0171
0.0024,0.0024,0.0024,0.0024,0.0024,0.0024,0.0024,0.0928,0.1367,0.0122
0.0024,0.0024,0.0024,0.0024,0.0024,0.0024,0.0171,0.0732,0.1025,0.0366
0.0024,0.0024,0.0024,0.0024,0.0024,0.0024,0.0317,0.0732,0.0903,0.0366
0.0024,0.0024,0.0024,0.0024,0.0024,0.0024,0.0488,0.1294,0.1318,0.0439
0.0488,0.0024,0.0024,0.0024,0.0024,0.0024,0.1416,0.2637,0.1416,0.0244
0.0586,0.0024,0.0024,0.0024,0.0024,0.0024,0.1318,0.3247,0.1294,0.0342
0.0024,0.0024,0.0024,0.0024,0.0024,0.0024,0.1318,0.21,0.105,0.0317
0.0146,0.0024,0.0391,0.0537,0.0024,0.0024,0.1831,0.1758,0.0952,0.022
0.0098,0.0024,0.0024,0.0024,0.0024,0.0024,0.0366,0.1587,0.0293,0.0098
0.0171,0.0024,0.0024,0.0024,0.0024,0.0024,0.0391,0.2759,0.0073,0.0122
0.0122,0.0024,0.0024,0.0024,0.0024,0.0024,0.0806,0.2563,0.0024,0.0024
0.0317,0.0024,0.0024,0.0024,0.0049,0.0024,0.0342,0.3418,0.0024,0.0146
0.1318,0.1074,0.2441,0.21,0.0024,0.0024,0.0708,0.2051,0.7983,0.0171
0.2319,0.2905,0.1587,0.3784,0.127,0.1074,0.5103,0.9497,0.9351,0.0415
0.0073,0.0024,0.0854,0.1978,0.1782,0.1636,0.2393,0.1074,0.3662,0.2173
0.0024,0.0024,0.0024,0.0024,0.0024,0.0024,0.0024,0.0098,0.0708,0.0024
0.3271,0.0024,0.0024,0.0024,0.0024,0.0024,0.0024,0.1587,0.0806,0.0024
0.1953,0.0024,0.0024,0.0024,0.0024,0.0024,0.0024,0.083,0.0464,0.0024
0.0073,0.0024,0.0024,0.0024,0.0024,0.0024,0.0073,0.0562,0.061,0.0024
0.0024,0.0024,0.0024,0.0024,0.0024,0.0024,0.0024,0.0195,0.0439,0.0024
0.0879,0.0024,0.0024,0.0024,0.0024,0.0024,0.0464,0.0488,0.0317,0.0024
0.1563,0.0049,0.0073,0.0757,0.0024,0.022,0.2124,0.6079,0.061,0.0024
0.0635,0.022,0.0024,0.0317,0.0024,0.0024,0.0122,0.3076,0.0781,0.0098
0.1807,0.2173,0.0195,0.1099,0.0903,0.0781,0.5737,0.5835,2.854,0.1611
0.0024,0.0024,0.0024,0.0024,0.0024,0.0024,0.0049,0.1343,0.0757,0.0024
0.0024,0.0024,0.0049,0.0024,0.0024,0.0024,0.0024,0.1953,0.083,0.0024
0.3296,0.0024,0.0024,0.0024,0.0024,0.0024,0.0903,0.3101,0.7837,0.0854
0.0024,0.0024,0.0024,0.0024,0.0024,0.0024,0.0024,0.0024,0.0732,0.022
0.0659,0.0024,0.0024,0.0024,0.0024,0.0024,0.0073,0.0854,0.1343,0.0024
0.0024,0.0024,0.0024,0.0024,0.0659,0.0024,0.1733,0.1465,0.1538,0.0024
0.0073,0.0024,0.0024,0.0024,0.0854,0.0146,0.1611,0.1685,0.1514,0.0073
0.0024,0.0024,0.0366,0.0024,0.0024,0.0024,0.0342,0.0317,0.1196,0.0366
0.0024,0.0098,0.1367,0.0024,0.0024,0.0024,0.0586,0.022,0.2124,0.0049
0.0024,0.0024,0.0024,0.0024,0.0024,0.0024,0.0073,0.0293,0.0098,0.0146
0.0073,0.0024,0.0024,0.0024,0.0024,0.0024,0.0464,0.0244,0.0024,0.0073
0.0024,0.0024,0.0024,0.0024,0.0024,0.0024,0.0024,0.0635,0.0073,0.0024
0.0024,0.0024,0.0024,0.0024,0.0024,0.0024,0.0464,0.0879,0.0024,0.0806
0.0024,0.0024,0.0024,0.0024,0.0024,0.0024,0.0122,0.0806,0.0024,0.0122
0.0439,0.0024,0.0024,0.0024,0.0024,0.0024,0.0024,0.0464,0.0024,0.0171
0.0049,0.0024,0.0024,0.0024,0.0024,0.0024,0.0049,0.0391,0.0024,0.022
0.0024,0.0024,0.0024,0.0024,0.0024,0.0024,0.0317,0.0488,0.0171,0.0269
0.0024,0.0024,0.0024,0.0024,0.0024,0.0024,0.1294,0.0806,0.0024,0.0537
0.0098,0.0024,0.0024,0.0024,0.0024,0.0024,0.1245,0.1001,0.0024,0.0391
0.0049,0.0024,0.0024,0.0024,0.0024,0.0024,0.2075,0.1172,0.0098,0.0171
0.0024,0.0024,0.0024,0.0024,0.0024,0.0024,0.2051,0.083,0.0024,0.022
0.0024,0.0024,0.0024,0.0024,0.0024,0.0024,0.2563,0.1001,0.0024,0.0146
0.0024,0.0024,0.0024,0.0024,0.0024,0.0024,0.1978,0.061,0.0024,0.0195
0.0024,0.0024,0.0024,0.0024,0.0024,0.0024,0.3003,0.1025,0.0024,0.0488
0.0024,0.0024,0.0024,0.0024,0.0024,0.0024,0.2588,0.0806,0.0024,0.0366
0.0024,0.0024,0.0024,0.0024,0.0049,0.0024,0.0464,0.0635,0.0024,0.0366
0.0757,0.0024,0.0024,0.0024,0.0024,0.0024,0.0317,0.0293,0.0024,0.0342
0.0024,0.0024,0.0049,0.0024,0.0024,0.0024,0.0684,0.0293,0.0024,0.0244
0.1831,0.0049,0.0024,0.0024,0.0024,0.0024,0.1367,0.1489,0.0024,0.0122
0.0024,0.0024,0.0024,0.0024,0.0024,0.0024,0.0806,0.083,0.0049,0.0024
0.0293,0.0024,0.0024,0.0024,0.0024,0.0024,0.0952,0.0488,0.0024,0.0146
0.1392,0.0024,0.0024,0.0024,0.0024,0.0024,0.061,0.1099,0.0024,0.0024
0.0684,0.0024,0.0024,0.0024,0.0024,0.0024,0.0415,0.083,0.0024,0.0024
0.0024,0.0024,0.0024,0.0024,0.0024,0.0024,0.0928,0.1489,0.0024,0.0244
0.0024,0.0024,0.0024,0.0024,0.0049,0.0024,0.061,0.0586,0.0024,0.0024
0.0122,0.0024,0.0024,0.0024,0.0024,0.0024,0.0073,0.0586,0.0024,0.022
0.1025,0.0024,0.0024,0.0024,0.0024,0.0024,0.0464,0.1563,0.0024,0.0024
0.0024,0.0024,0.0024,0.0024,0.0024,0.0024,0.0366,0.0464,0.0024,0.022
0.0024,0.0024,0.0024,0.0024,0.0024,0.0024,0.1196,0.061,0.0024,0.0464
0.0024,0.0024,0.0024,0.0024,0.0024,0.0024,0.0073,0.0366,0.0024,0.0293
0.0024,0.0024,0.0024,0.0024,0.0024,0.0024,0.0122,0.1123,0.0024,0.0562
0.0757,0.0024,0.0024,0.0024,0.0024,0.0024,0.0195,0.1465,0.0024,0.0513
0.0024,0.0024,0.0024,0.0024,0.0024,0.0024,0.0391,0.1245,0.0024,0.0659
0.022,0.0024,0.0024,0.0024,0.0024,0.0024,0.0195,0.1025,0.0024,0.0537
0.1489,0.0024,0.0024,0.0024,0.0024,0.0024,0.0024,0.2051,0.0024,0.022
0.0464,0.0024,0.0024,0.0024,0.0024,0.0024,0.0659,0.1563,0.0024,0.0317
0.0293,0.0024,0.1196,0.0024,0.0024,0.0024,0.0781,0.21,0.022,0.0488
0.0024,0.0024,0.0024,0.0024,0.0024,0.0024,0.1123,0.1514,0.0024,0.0366
0.1831,0.0024,0.0024,0.0024,0.0049,0.0024,0.0195,0.1904,0.0024,0.0488
0.0024,0.0024,0.0024,0.0024,0.0024,0.0024,0.0659,0.105,0.0024,0.0513
0.2075,0.0024,0.0024,0.0024,0.0024,0.0024,0.0195,0.1538,0.0024,0.0415
0.0415,0.0024,0.0024,0.0024,0.0024,0.0024,0.0024,0.083,0.0024,0.0269
0.2539,0.0024,0.0024,0.0049,0.0024,0.0024,0.0122,0.1709,0.0024,0.0366
0.1514,0.0024,0.0024,0.0024,0.0024,0.0024,0.0098,0.1538,0.0024,0.0439
0.1685,0.0024,0.0024,0.0024,0.0024,0.0024,0.0439,0.1196,0.0024,0.0293
0.0464,0.0024,0.0024,0.0024,0.0024,0.0024,0.022,0.0854,0.0024,0.0513
0.0024,0.0024,0.0024,0.0024,0.0024,0.0024,0.0024,0.0049,0.0024,0.0439
0.0024,0.0024,0.0024,0.0024,0.0024,0.0024,0.0366,0.0732,0.0024,0.0659
0.0073,0.0024,0.0024,0.0024,0.0024,0.0024,0.022,0.0537,0.0024,0.061
0.022,0.0024,0.0024,0.0024,0.0024,0.0024,0.0269,0.0977,0.0024,0.0586
0.0293,0.0024,0.0024,0.0024,0.0024,0.0024,0.0024,0.1074,0.0024,0.0366
0.0024,0.0024,0.0024,0.0024,0.0049,0.0024,0.0024,0.0098,0.0024,0.0586
0.0342,0.0024,0.0024,0.0024,0.0024,0.0024,0.0684,0.0537,0.0024,0.0415
0.0122,0.0024,0.0024,0.0024,0.0024,0.0024,0.0366,0.0781,0.0024,0.0464
0.0293,0.0024,0.0049,0.0024,0.0024,0.0024,0.0024,0.0732,0.0024,0.0659
0.0562,0.0024,0.0024,0.0024,0.0024,0.0024,0.0391,0.1611,0.0024,0.0464
0.0806,0.0024,0.0049,0.0024,0.0024,0.0024,0.0488,0.2246,0.0024,0.0562
0.0049,0.0024,0.0024,0.0024,0.0024,0.0024,0.0171,0.0781,0.0024,0.0391
0.0122,0.0024,0.0024,0.0024,0.0024,0.0024,0.0122,0.105,0.0024,0.0317
0.0024,0.0024,0.0024,0.0024,0.0049,0.0024,0.0146,0.1343,0.0024,0.0513
0.0122,0.0024,0.0024,0.0024,0.0024,0.0024,0.0146,0.1563,0.0024,0.0293
0.0024,0.0024,0.0049,0.0024,0.0024,0.0024,0.0391,0.1123,0.0024,0.0439
0.0391,0.0024,0.0024,0.0024,0.0024,0.0024,0.0537,0.1904,0.0024,0.0269
0.0146,0.0024,0.0024,0.0024,0.0024,0.0024,0.0806,0.1221,0.0024,0.0439
0.0024,0.0024,0.0024,0.0024,0.0024,0.0024,0.0391,0.0806,0.0024,0.0342
0.0024,0.0024,0.0024,0.0024,0.0024,0.0024,0.0049,0.1025,0.0024,0.0195
0.0024,0.0024,0.0024,0.0024,0.0024,0.0024,0.0391,0.0977,0.0024,0.0366
0.0049,0.0024,0.0024,0.0024,0.0024,0.0024,0.0415,0.0952,0.0024,0.0146
0.0806,0.0024,0.0024,0.0024,0.0024,0.0024,0.0024,0.0977,0.0024,0.0391
0.0073,0.0024,0.0024,0.0024,0.0024,0.0024,0.0024,0.0171,0.0244,0.0488
0.0073,0.0024,0.0049,0.0024,0.0024,0.0024,0.0024,0.0049,0.0244,0.0439
0.0171,0.0024,0.0024,0.0024,0.0024,0.0024,0.0049,0.0366,0.0293,0.0586
0.0293,0.0024,0.0024,0.0024,0.0024,0.0024,0.0024,0.0415,0.0098,0.0488
0.0439,0.0024,0.0024,0.0024,0.0024,0.0024,0.0024,0.0439,0.0195,0.0513
0.0024,0.0024,0.0024,0.0024,0.0024,0.0024,0.0024,0.0366,0.0439,0.0903
0.0464,0.0024,0.0342,0.0024,0.0024,0.0024,0.0024,0.0537,0.0562,0.0562
0.0366,0.0659,0.1807,0.0024,0.0024,0.0024,0.0024,0.0952,0.0586,0.1172
0.0952,0.0024,0.0024,0.0024,0.0024,0.0024,0.0317,0.1367,0.0024,0.0464
0.0024,0.0024,0.0024,0.0024,0.0024,0.0024,0.0195,0.0732,0.0024,0.0439
0.0024,0.0024,0.0024,0.0024,0.0024,0.0024,0.0415,0.0757,0.0024,0.061
0.0122,0.0024,0.0024,0.0024,0.0024,0.0024,0.0024,0.1392,0.0024,0.0366
0.0098,0.0024,0.0024,0.0024,0.0024,0.0024,0.083,0.1343,0.1294,0.5249
0.0073,0.0024,0.0024,0.0024,0.0024,0.0024,0.0293,0.1001,0.0757,0.0586
0.0024,0.0024,0.0024,0.0024,0.0024,0.0024,0.0024,0.0464,0.0269,0.0391
0.0024,0.0024,0.0024,0.0024,0.0024,0.0024,0.0024,0.0562,0.0171,0.0464
0.0024,0.0024,0.0024,0.0024,0.0024,0.0024,0.0024,0.0854,0.0928,0.0464
0.1343,0.0024,0.0024,0.0024,0.0024,0.0024,0.0342,0.1733,0.3687,0.0635
0.0024,0.0024,0.0024,0.0024,0.0024,0.0024,0.0146,0.1074,0.0928,0.0415
0.0269,0.0024,0.0024,0.0024,0.0024,0.0024,0.0464,0.105,0.1099,0.0342
0.1538,0.0024,0.0024,0.0024,0.0024,0.0024,0.0122,0.1367,0.1147,0.0562
0.0171,0.0024,0.0024,0.0024,0.0024,0.0024,0.0171,0.0879,0.0854,0.0366
0.0024,0.0024,0.0024,0.0024,0.0024,0.0024,0.0073,0.0806,0.1172,0.0293
0.0391,0.0024,0.0024,0.0024,0.0024,0.0024,0.0171,0.1123,0.1147,0.0415
0.0024,0.0024,0.0024,0.0024,0.0024,0.0024,0.0098,0.0415,0.127,0.0366
0.0024,0.0024,0.0024,0.0024,0.0024,0.0024,0.0171,0.0562,0.0977,0.0317
0.0024,0.0024,0.0024,0.0024,0.0024,0.0024,0.022,0.083,0.1123,0.0317
0.0024,0.0024,0.0024,0.0024,0.0024,0.0024,0.0073,0.0513,0.1099,0.0024
0.0024,0.0024,0.0024,0.0024,0.0024,0.0024,0.0024,0.0684,0.1465,0.0049
0.0024,0.0024,0.0024,0.0024,0.0024,0.0024,0.0757,0.0464,0.1611,0.0098
0.0049,0.0024,0.0024,0.0024,0.0024,0.0024,0.0244,0.1563,0.2173,0.0024
0.0024,0.0024,0.0024,0.0098,0.0024,0.0024,0.0903,0.0952,0.376,0.0049
0.0024,0.0024,0.0024,0.0024,0.0024,0.0024,0.0415,0.0342,0.0928,0.0024
0.0024,0.0024,0.0024,0.0024,0.0024,0.0024,0.061,0.0464,0.0903,0.0024
0.0024,0.0024,0.0024,0.0024,0.0024,0.0024,0.0464,0.105,0.1147,0.0024
0.0049,0.0024,0.0024,0.0024,0.0024,0.0024,0.0586,0.1392,0.127,0.0122
0.0049,0.0024,0.0024,0.0024,0.0024,0.0024,0.0732,0.1001,0.1221,0.0024
0.0073,0.0024,0.0024,0.0024,0.0024,0.0024,0.0757,0.0586,0.144,0.0171
0.0146,0.0024,0.0024,0.0024,0.0049,0.0024,0.1807,0.0879,0.249,0.022
0.0195,0.0024,0.0146,0.0024,0.0024,0.0049,0.5444,0.1465,0.3174,0.0488
0.0171,0.0024,0.0146,0.0024,0.0024,0.0073,0.603,0.144,0.3857,0.0488
0.0195,0.0049,0.022,0.0024,0.0024,0.0098,0.6934,0.1611,0.4443,0.0464
0.022,0.0146,0.1514,0.0122,0.0024,0.0024,0.9692,0.1831,0.4004,0.0488
0.0317,0.0195,0.144,0.0024,0.0024,0.0024,1.0254,0.2124,0.4028,0.0562
0.0073,0.0024,0.0659,0.0024,0.0024,0.0024,0.5786,0.1172,0.1953,0.0342
0.0146,0.0024,0.0977,0.0024,0.0024,0.0024,0.4541,0.105,0.2271,0.0317
0.0293,0.0171,0.0952,0.0024,0.0024,0.0024,0.5786,0.1221,0.2783,0.0464
0.0415,0.0146,0.0977,0.0024,0.0024,0.0024,0.73,0.166,0.293,0.0464
0.0562,0.0073,0.1123,0.0195,0.0024,0.0024,0.7617,0.2002,0.2515,0.0464
0.0684,0.0439,0.1807,0.0806,0.0024,0.022,1.4331,0.3687,0.8276,0.1001
0.0659,0.0342,0.1733,0.0806,0.0024,0.022,1.5332,0.3784,0.8252,0.1025
0.061,0.0171,0.2588,0.0708,0.0024,0.0171,1.4111,0.376,0.7104,0.0635
0.0659,0.0146,0.2759,0.0635,0.0024,0.0122,1.3257,0.3687,0.6616,0.0586
0.0488,0.0488,0.2368,0.0635,0.0024,0.0024,1.0742,0.3296,0.8252,0.0464
0.0903,0.0732,0.3491,0.0952,0.0024,0.0146,1.1914,0.2954,1.0376,0.061
0.0806,0.105,0.293,0.1099,0.0024,0.0146,1.2207,0.332,1.0913,0.083
0.083,0.0952,0.2661,0.1025,0.0024,0.0146,1.2671,0.3345,1.0229,0.0781
0.0928,0.0854,0.2441,0.0952,0.0049,0.0122,1.2476,0.3516,1.0645,0.0781
0.105,0.0732,0.2856,0.1196,0.0098,0.0122,1.1279,0.3711,1.1035,0.0659
0.0781,0.1025,0.3149,0.1489,0.0073,0.0195,1.1499,0.3271,1.0938,0.0781
0.0903,0.1538,0.4541,0.1904,0.0024,0.0171,1.1694,0.3638,0.9888,0.083
0.0977,0.1245,0.3613,0.1245,0.0049,0.0195,1.1328,0.3931,0.8984,0.0879
0.0952,0.0732,0.2954,0.0684,0.0024,0.022,1.1426,0.4102,0.9155,0.1123
0.0781,0.0732,0.2734,0.0854,0.0049,0.0146,1.1133,0.3638,0.8984,0.0903
0.0708,0.0708,0.3027,0.0708,0.0024,0.0146,1.1646,0.354,0.7446,0.0854
0.0659,0.0586,0.2905,0.0757,0.0024,0.0122,1.1108,0.3369,0.6958,0.0781
0.1074,0.061,0.4639,0.1074,0.0024,0.0342,1.4307,0.3589,0.5444,0.0537
0.1172,0.0757,0.4883,0.1318,0.0073,0.0391,1.3159,0.3662,0.6274,0.061
0.0757,0.0586,0.3418,0.0928,0.0024,0.0293,1.1646,0.293,0.3906,0.0317
0.0708,0.0244,0.2271,0.083,0.0024,0.022,1.2524,0.3125,0.332,0.0391
0.0708,0.022,0.2612,0.105,0.0024,0.0244,1.333,0.3003,0.3418,0.0366
0.0659,0.0122,0.144,0.0952,0.0024,0.0244,1.1719,0.2686,0.4517,0.0513
0.0586,0.0024,0.1563,0.0952,0.0024,0.0195,1.106,0.2637,0.3955,0.0488
0.0684,0.0146,0.2563,0.1343,0.0024,0.0098,0.957,0.2637,0.4175,0.0391
0.0659,0.0073,0.2563,0.127,0.0024,0.0073,0.9497,0.271,0.3784,0.0415
0.0732,0.0024,0.2002,0.0879,0.0024,0.0122,0.9521,0.3101,0.3809,0.0903
0.0732,0.0024,0.1807,0.0977,0.0024,0.0098,0.9814,0.3076,0.3662,0.0879
0.061,0.0024,0.1855,0.0879,0.0024,0.0049,0.8594,0.2588,0.2246,0.0635
0.0708,0.0024,0.1538,0.0977,0.0024,0.0024,0.8374,0.2466,0.249,0.061
0.083,0.0024,0.1221,0.1001,0.0024,0.0098,1.1401,0.3003,0.2734,0.0659
0.0635,0.0171,0.2124,0.0977,0.0024,0.0146,1.0303,0.3418,0.4248,0.061
0.0879,0.0317,0.2173,0.083,0.0024,0.0171,1.0425,0.3564,0.4395,0.0635
0.0879,0.0146,0.144,0.0415,0.0024,0.0122,0.9058,0.3076,0.3198,0.0586
0.1001,0.0073,0.1147,0.0342,0.0024,0.0049,0.8154,0.3491,0.2271,0.0439
0.0977,0.0269,0.1318,0.0195,0.0024,0.0122,0.9277,0.3955,0.1904,0.0757
0.1001,0.0293,0.127,0.022,0.0024,0.0195,1.0815,0.437,0.1758,0.0781
0.1025,0.0122,0.0757,0.0171,0.0024,0.0073,0.9302,0.4443,0.1855,0.0879
0.0806,0.0024,0.1538,0.0488,0.0024,0.0024,0.603,0.3247,0.1587,0.0781
0.0879,0.0049,0.1855,0.0562,0.0024,0.0024,0.7593,0.3003,0.2246,0.0732
0.1221,0.0024,0.0952,0.0977,0.0024,0.0122,0.7617,0.2881,0.1025,0.0708
0.0977,0.0024,0.1245,0.0879,0.0024,0.0024,0.73,0.3076,0.1758,0.1196
0.0806,0.0024,0.0732,0.0586,0.0049,0.0024,0.8081,0.3467,0.2173,0.105
0.1318,0.0586,0.2295,0.1025,0.0024,0.0195,0.7959,0.3857,0.2661,0.1538
0.1367,0.0854,0.1489,0.061,0.0049,0.022,1.0864,0.4004,0.1855,0.1782
0.0977,0.1294,0.2637,0.1172,0.0024,0.0098,0.9912,0.3296,0.3418,0.105
0.2246,0.2783,0.249,0.1294,0.0098,0.0269,0.9961,0.5591,0.4565,0.1074
0.2124,0.3711,0.3589,0.1465,0.022,0.0464,1.1987,0.6543,0.3687,0.0879
0.1953,0.6519,0.6177,0.2319,0.0024,0.0146,0.5469,0.4395,0.7642,0.0928
0.1221,0.354,0.4541,0.0952,0.0024,0.0122,0.8472,0.376,0.5029,0.1538
0.1147,0.3003,0.4175,0.0977,0.0024,0.0098,0.8325,0.3662,0.4468,0.144
0.1123,0.2637,0.3711,0.1025,0.0024,0.0098,0.7617,0.3491,0.4028,0.1294
0.1489,0.3223,0.3809,0.0659,0.0024,0.0073,0.3906,0.4248,0.7129,0.1343
0.1636,0.2856,0.3247,0.0659,0.0024,0.0098,0.4492,0.4932,0.6836,0.1465
0.1099,0.2295,0.4175,0.0537,0.0024,0.0024,0.2246,0.354,0.7007,0.0928
0.0952,0.1733,0.4126,0.0293,0.0024,0.0024,0.1587,0.3442,0.4663,0.0854
0.0903,0.1123,0.3101,0.0146,0.0024,0.0024,0.1172,0.4297,0.3418,0.0684
0.1074,0.061,0.3442,0.1099,0.0024,0.0024,0.1392,0.4248,0.647,0.1245
0.1001,0.0439,0.3418,0.1489,0.0024,0.0024,0.127,0.3882,0.6372,0.1465
0.0586,0.022,0.5298,0.0342,0.0024,0.0024,0.0659,0.2173,0.6982,0.1074
0.0439,0.0317,0.5029,0.0439,0.0024,0.0024,0.0342,0.1587,0.5835,0.0488
0.0439,0.0195,0.4858,0.0464,0.0024,0.0024,0.0269,0.1855,0.5396,0.0513
0.0391,0.0024,0.5933,0.1025,0.0024,0.0024,0.0024,0.1563,0.7129,0.0317
0.0366,0.0024,0.6323,0.0977,0.0024,0.0024,0.0024,0.1563,0.7153,0.0269
0.0342,0.0024,0.5957,0.0879,0.0024,0.0024,0.0073,0.1538,0.6763,0.022
0.0293,0.0024,0.5347,0.0732,0.0024,0.0024,0.0049,0.1416,0.6299,0.022
0.0244,0.0024,0.5054,0.0562,0.0024,0.0024,0.0024,0.1294,0.5811,0.022
0.0098,0.0024,0.4126,0.0269,0.0024,0.0024,0.0024,0.1367,0.4395,0.022
0.0024,0.0024,0.4175,0.0342,0.0024,0.0024,0.0049,0.1636,0.603,0.0122
0.0098,0.0024,0.4614,0.0269,0.0024,0.0024,0.0024,0.1611,0.6372,0.0171
0.0269,0.0024,0.2515,0.0073,0.0024,0.0024,0.0024,0.1514,0.2222,0.0244
0.0244,0.0024,0.2954,0.0024,0.0024,0.0024,0.0024,0.1416,0.2588,0.022
0.0635,0.0024,0.1465,0.0439,0.0024,0.0024,0.0708,0.271,0.0854,0.0464
0.0757,0.0024,0.1514,0.0366,0.0024,0.0024,0.0781,0.2759,0.0928,0.0464
0.0317,0.0024,0.0415,0.0024,0.0024,0.0024,0.0317,0.1709,0.0122,0.0244
0.0317,0.0024,0.0244,0.0024,0.0024,0.0024,0.0269,0.1538,0.0024,0.022
0.0317,0.0024,0.0098,0.0024,0.0024,0.0024,0.0195,0.144,0.0024,0.0195
0.061,0.0024,0.0024,0.0024,0.0024,0.0024,0.0146,0.1343,0.0024,0.0195
0.0342,0.0024,0.0073,0.0024,0.0024,0.0024,0.0171,0.1489,0.0269,0.0342
0.0122,0.0024,0.0024,0.0024,0.0024,0.0024,0.1978,0.1147,0.0659,0.0757
0.0098,0.0024,0.0024,0.0024,0.0024,0.0024,0.1855,0.1074,0.061,0.0659
0.0146,0.0024,0.0049,0.0024,0.0024,0.0024,0.2539,0.1367,0.0708,0.0757
0.0171,0.0024,0.0024,0.0024,0.0024,0.0024,0.2783,0.1465,0.0635,0.0757
0.0195,0.0024,0.0024,0.0024,0.0024,0.0024,0.3613,0.1538,0.0562,0.0977
0.0244,0.0024,0.0024,0.0024,0.0024,0.0073,0.6006,0.1904,0.1074,0.1172
0.0146,0.0024,0.0098,0.0024,0.0024,0.0024,0.5298,0.1367,0.2441,0.0684
0.0122,0.0024,0.0024,0.0024,0.0024,0.0024,0.4932,0.1123,0.1807,0.0562
0.0073,0.0024,0.0024,0.0024,0.0024,0.0024,0.4272,0.1196,0.1123,0.0562
0.0195,0.0024,0.0073,0.0146,0.0024,0.0098,0.6226,0.1831,0.1538,0.0586
0.0171,0.0024,0.0073,0.0293,0.0024,0.0073,0.6006,0.188,0.1563,0.0537
0.0146,0.0024,0.0342,0.0415,0.0024,0.0024,0.5078,0.1465,0.1587,0.0391
0.0342,0.0024,0.0342,0.0415,0.0024,0.0049,0.8594,0.188,0.2539,0.0659
0.0366,0.0024,0.0317,0.0391,0.0024,0.0049,0.8862,0.1855,0.2319,0.0659
0.0342,0.0024,0.0269,0.0391,0.0024,0.0024,0.8765,0.1807,0.2368,0.0659
0.0342,0.0024,0.0439,0.0391,0.0024,0.0049,1.001,0.2026,0.4053,0.0684
0.0391,0.0024,0.0586,0.0391,0.0024,0.0024,1.0132,0.2417,0.4272,0.0757
0.0415,0.0073,0.083,0.0757,0.0024,0.0049,1.0083,0.2393,0.5908,0.0635
0.061,0.0122,0.0806,0.083,0.0024,0.0073,1.0669,0.2588,0.6641,0.0757
0.0513,0.0342,0.1221,0.0684,0.0024,0.0122,0.9473,0.2319,0.918,0.0757
0.0513,0.0317,0.1538,0.0854,0.0024,0.0146,0.957,0.271,0.8716,0.0806
0.0488,0.0293,0.1538,0.0977,0.0024,0.0122,0.896,0.2563,0.8545,0.0977
0.0415,0.0293,0.2124,0.1196,0.0024,0.0073,0.9375,0.2759,0.8105,0.0952
0.0537,0.0391,0.2319,0.1221,0.0024,0.0098,1.1011,0.3174,0.8765,0.1001
0.0659,0.0903,0.2173,0.0977,0.0024,0.0098,0.9961,0.3247,0.896,0.0928
0.0757,0.0977,0.2124,0.1099,0.0024,0.0098,0.9717,0.3369,0.8545,0.0854
0.0903,0.083,0.1855,0.1587,0.0024,0.0171,1.1987,0.3687,1.0425,0.0977
0.1001,0.0757,0.2759,0.1367,0.0024,0.022,1.2305,0.3931,0.9399,0.0977
0.144,0.1758,0.3711,0.1733,0.022,0.0293,1.1426,0.4614,0.8203,0.0708
0.1367,0.1685,0.4077,0.1807,0.0146,0.0391,1.2744,0.4761,0.8521,0.0854
0.1758,0.1929,0.3369,0.2051,0.0317,0.0659,1.3721,0.5273,0.8374,0.1416
0.1489,0.1465,0.4565,0.2271,0.0195,0.0488,1.0962,0.5762,1.0522,0.1025
0.1367,0.1294,0.3271,0.1563,0.0269,0.0464,1.1377,0.5664,1.0986,0.0928
0.1343,0.1343,0.3198,0.1514,0.0269,0.0464,1.2183,0.564,1.1328,0.0928
0.1074,0.0781,0.4272,0.1758,0.0098,0.0269,1.1377,0.4419,0.7739,0.1099
0.1099,0.0879,0.4248,0.1758,0.0146,0.0366,1.2964,0.4614,0.7886,0.1196
0.0757,0.0391,0.2905,0.1489,0.0024,0.0171,0.8301,0.4028,0.3589,0.0562
0.0635,0.0269,0.2515,0.1367,0.0024,0.0146,0.8105,0.3711,0.3345,0.061
0.0708,0.0342,0.2173,0.105,0.0024,0.0244,1.0059,0.437,0.3589,0.0708
0.1099,0.0684,0.1953,0.1147,0.0073,0.0195,1.0791,0.3442,0.415,0.0732
0.0977,0.0537,0.166,0.1099,0.0024,0.0195,1.0645,0.3516,0.376,0.0781
0.105,0.0488,0.1538,0.1099,0.0024,0.0171,1.062,0.3516,0.3442,0.0806
0.0977,0.0024,0.1294,0.1001,0.0024,0.0146,1.1523,0.3345,0.1782,0.0562
0.0732,0.0024,0.0757,0.0391,0.0024,0.0024,0.603,0.2271,0.1343,0.0537
0.0708,0.0024,0.0635,0.0391,0.0024,0.0024,0.6494,0.2295,0.1294,0.0513
0.0659,0.0024,0.0879,0.0488,0.0024,0.0024,0.6665,0.2295,0.127,0.0488
0.0586,0.0024,0.1123,0.0562,0.0024,0.0024,0.5615,0.21,0.1538,0.0391
0.0537,0.0024,0.105,0.0708,0.0049,0.0024,0.5005,0.2222,0.1636,0.0342
0.0464,0.0024,0.0659,0.0488,0.0024,0.0146,0.8618,0.2368,0.2051,0.061
0.0464,0.0024,0.0537,0.0464,0.0024,0.0073,0.7349,0.2051,0.1709,0.0586
0.0439,0.0293,0.1611,0.083,0.0024,0.0024,0.5493,0.2295,0.2808,0.0488
0.0586,0.0146,0.127,0.0708,0.0024,0.0024,0.4858,0.2563,0.2026,0.0488
0.0464,0.0024,0.1343,0.0903,0.0024,0.0024,0.459,0.2051,0.0781,0.0244
0.0415,0.0024,0.0903,0.061,0.0024,0.0024,0.4565,0.2124,0.1294,0.0244
0.0513,0.0024,0.0488,0.0586,0.0024,0.0024,0.2954,0.1855,0.0757,0.0171
0.0366,0.0024,0.0757,0.022,0.0024,0.0049,0.2563,0.1489,0.1172,0.0195
0.0269,0.0024,0.0464,0.0122,0.0024,0.0024,0.1831,0.1318,0.1318,0.0098
0.0244,0.0024,0.0903,0.061,0.0024,0.0024,0.2222,0.1611,0.1318,0.0269
0.0195,0.0073,0.2026,0.0903,0.0024,0.0024,0.1636,0.1392,0.127,0.0269
0.0171,0.0024,0.0977,0.0586,0.0024,0.0024,0.1123,0.0977,0.1709,0.0293
0.0244,0.0024,0.144,0.0537,0.0024,0.0024,0.2246,0.1343,0.1465,0.0464
0.0342,0.0024,0.1099,0.0562,0.0024,0.0024,0.1489,0.1367,0.105,0.0415
0.0342,0.0024,0.0732,0.0757,0.0024,0.0024,0.2637,0.1318,0.1123,0.0684
0.0317,0.0024,0.166,0.0757,0.0024,0.0024,0.2002,0.1172,0.144,0.0488
0.0342,0.0024,0.1074,0.0586,0.0024,0.0024,0.1245,0.1147,0.0879,0.0293
0.0244,0.0024,0.0513,0.0391,0.0024,0.0024,0.0928,0.1318,0.061,0.0562
0.0391,0.0024,0.105,0.0562,0.0024,0.0024,0.0879,0.1416,0.0952,0.061
0.0195,0.0024,0.1294,0.0415,0.0024,0.0024,0.0513,0.1123,0.1245,0.0439
0.0171,0.0024,0.0708,0.0366,0.0024,0.0024,0.0635,0.105,0.0732,0.0391
0.0195,0.0024,0.0757,0.0439,0.0024,0.0024,0.1221,0.1245,0.0659,0.0488
0.0269,0.0024,0.0903,0.0806,0.0024,0.0024,0.1416,0.1343,0.0464,0.0537
0.0244,0.0024,0.1318,0.0049,0.0024,0.0024,0.0513,0.1465,0.0732,0.0293
0.0635,0.0024,0.1147,0.0366,0.0024,0.0024,0.0806,0.1514,0.0781,0.0269
0.0732,0.0122,0.1587,0.0635,0.0024,0.0024,0.2075,0.1636,0.1172,0.0244
0.0342,0.0024,0.1709,0.0903,0.0024,0.0024,0.0781,0.1929,0.1221,0.0366
0.0269,0.0024,0.127,0.0439,0.0024,0.0024,0.0562,0.1831,0.1172,0.0293
0.022,0.0024,0.1221,0.0391,0.0024,0.0024,0.0513,0.1587,0.1099,0.0293
0.0073,0.0024,0.2393,0.0635,0.0024,0.0024,0.0342,0.1172,0.1538,0.0366
0.0391,0.0024,0.249,0.0806,0.0049,0.0024,0.022,0.1392,0.2612,0.0366
0.0464,0.0024,0.2271,0.083,0.0024,0.0024,0.022,0.1392,0.2612,0.0317
0.0391,0.0024,0.2637,0.1147,0.0024,0.0024,0.0049,0.1929,0.2783,0.0195
0.1538,0.0024,0.3491,0.1294,0.0024,0.0024,0.0098,0.2124,0.2344,0.0146
0.3491,0.0024,0.1563,0.1025,0.0024,0.0024,0.0342,0.354,0.1099,0.0342
0.2271,0.0024,0.2393,0.105,0.0024,0.0024,0.0317,0.2881,0.1025,0.0171
0.1147,0.0024,0.0562,0.0293,0.0024,0.0024,0.0049,0.3125,0.0146,0.0073
0.1807,0.0024,0.022,0.0098,0.0024,0.0049,0.0342,0.3149,0.0024,0.0073
0.1538,0.0024,0.1636,0.0562,0.0049,0.0024,0.0293,0.2734,0.0073,0.0098
0.0977,0.0024,0.0903,0.0464,0.0024,0.0024,0.0024,0.2539,0.0146,0.0195
0.0977,0.0024,0.0708,0.0366,0.0024,0.0024,0.0024,0.249,0.0073,0.0195
0.1392,0.0024,0.0024,0.0024,0.0049,0.0024,0.0073,0.2002,0.0024,0.0195
0.1001,0.0024,0.0024,0.0024,0.0024,0.0024,0.0073,0.2026,0.0024,0.022
0.0708,0.0024,0.0244,0.0122,0.0024,0.0024,0.0024,0.1929,0.0049,0.0049
0.0977,0.0024,0.2222,0.0732,0.0024,0.0024,0.0024,0.1636,0.0293,0.0049
0.144,0.0024,0.1855,0.0586,0.0024,0.0024,0.0024,0.1904,0.0171,0.0024
0.1392,0.0024,0.1245,0.0342,0.0024,0.0024,0.0024,0.2417,0.0024,0.0073
0.127,0.0024,0.0684,0.0098,0.0049,0.0024,0.0073,0.2954,0.0024,0.0049
0.1074,0.0024,0.0269,0.0024,0.0024,0.0024,0.0098,0.3003,0.0024,0.0098
0.1147,0.0024,0.0098,0.0024,0.0024,0.0024,0.0171,0.3271,0.0122,0.0146
0.1587,0.0024,0.0024,0.0024,0.0024,0.0024,0.0146,0.2856,0.0098,0.0049
0.1831,0.0024,0.0024,0.0024,0.0024,0.0024,0.0049,0.2026,0.0024,0.0049
0.0806,0.0024,0.0903,0.0024,0.0024,0.0024,0.0024,0.2002,0.0024,0.0342
0.0684,0.0024,0.0781,0.0024,0.0024,0.0024,0.0024,0.2002,0.0049,0.0366
0.061,0.0024,0.1147,0.0024,0.0024,0.0024,0.0024,0.2002,0.0049,0.0342
0.022,0.0024,0.2686,0.0024,0.0024,0.0024,0.0024,0.1733,0.0366,0.022
0.0293,0.0024,0.2637,0.0049,0.0049,0.0024,0.0024,0.1807,0.0464,0.0171
0.0806,0.0024,0.0171,0.0024,0.0024,0.0024,0.0024,0.1367,0.0024,0.0024
0.0684,0.0024,0.061,0.0024,0.0024,0.0024,0.0024,0.1587,0.0024,0.0171
0.0269,0.0024,0.0024,0.0024,0.0024,0.0024,0.4004,0.1563,0.1489,0.0439
0.0098,0.0024,0.0024,0.0024,0.0024,0.0024,0.3027,0.1147,0.0781,0.0269
0.0293,0.0024,0.0049,0.0024,0.0024,0.0024,0.332,0.1685,0.188,0.0439
0.0293,0.0024,0.0024,0.0024,0.0024,0.0024,0.3247,0.1782,0.1929,0.0464
0.022,0.0024,0.0024,0.0024,0.0024,0.0024,0.3516,0.1807,0.1904,0.0415
0.0439,0.0073,0.0024,0.0024,0.0024,0.0073,0.603,0.2075,0.3491,0.0586
0.0366,0.0024,0.0024,0.0024,0.0024,0.0024,0.5591,0.1831,0.2612,0.0464
0.022,0.0024,0.0122,0.0049,0.0024,0.0024,0.4199,0.2051,0.1953,0.0513
0.022,0.0024,0.0293,0.0317,0.0024,0.0024,0.5078,0.2026,0.3296,0.0562
0.0366,0.0024,0.0098,0.0195,0.0024,0.0098,0.8667,0.2002,0.2734,0.0513
0.0195,0.0024,0.0757,0.0513,0.0024,0.0024,0.8911,0.2173,0.5981,0.0586
0.0269,0.0049,0.0781,0.0439,0.0024,0.0024,0.8911,0.2246,0.6616,0.061
0.0586,0.0269,0.1465,0.0684,0.0024,0.0171,0.9375,0.2954,0.8057,0.0708
0.0757,0.0488,0.188,0.0757,0.0024,0.0195,0.9839,0.2759,0.7397,0.0708
0.0757,0.0415,0.1978,0.0708,0.0024,0.0195,0.9888,0.2954,0.6494,0.0659
0.0781,0.0415,0.1416,0.1172,0.0024,0.0244,1.0815,0.3491,0.6982,0.0879
0.1074,0.0415,0.2612,0.1196,0.0024,0.0195,1.0327,0.481,0.7153,0.0879
0.0879,0.0854,0.4077,0.188,0.0024,0.0269,1.1646,0.5176,0.8447,0.0854
0.0903,0.105,0.4004,0.166,0.0024,0.022,1.1011,0.5054,0.9473,0.105
0.1123,0.144,0.4395,0.1636,0.0024,0.022,1.2598,0.5444,1.1206,0.144
0.1611,0.1538,0.3882,0.1807,0.0317,0.0708,1.5381,0.7153,0.9595,0.2393
0.1636,0.1538,0.3735,0.1831,0.0366,0.0684,1.46,0.686,0.9814,0.2246
0.1685,0.1245,0.332,0.166,0.0269,0.0415,1.2378,0.6934,0.8179,0.1196
0.166,0.1733,0.415,0.1782,0.0269,0.0415,1.2427,0.7568,1.0645,0.1147
0.2002,0.1782,0.5542,0.2148,0.0317,0.0366,1.3794,0.7642,1.0352,0.0977
0.1147,0.0732,0.2759,0.1563,0.0146,0.022,0.8472,0.5005,0.5493,0.0757
0.1123,0.0806,0.2661,0.1685,0.0195,0.0195,0.9424,0.52,0.5469,0.0757
0.127,0.0854,0.2563,0.1855,0.0293,0.0146,0.9326,0.542,0.5005,0.083
0.144,0.0928,0.2417,0.1611,0.0244,0.0171,0.8105,0.5322,0.5273,0.0732
0.1343,0.0928,0.2393,0.1514,0.0122,0.0195,0.9937,0.5054,0.5371,0.1025
0.127,0.0879,0.2466,0.1392,0.0098,0.0146,0.9521,0.498,0.5273,0.105
0.0806,0.0415,0.1538,0.1172,0.0024,0.0073,1.001,0.4614,0.3979,0.083
0.0903,0.0244,0.1367,0.0708,0.0024,0.0098,1.0034,0.4297,0.3491,0.0708
0.0903,0.022,0.1587,0.0732,0.0024,0.0073,0.9326,0.4272,0.3906,0.0659
0.083,0.0195,0.1538,0.0854,0.0024,0.0049,0.7861,0.4395,0.3613,0.0781
0.0781,0.0146,0.1465,0.0952,0.0024,0.0049,0.7568,0.4443,0.3223,0.0928
0.0708,0.0098,0.1563,0.0586,0.0024,0.0098,0.7056,0.3223,0.2905,0.0684
0.0562,0.0073,0.0952,0.0122,0.0024,0.0024,0.5396,0.2148,0.1929,0.0488
0.0342,0.0024,0.1074,0.0757,0.0024,0.0024,0.4492,0.188,0.1904,0.0513
0.0415,0.0024,0.0781,0.0293,0.0024,0.0024,0.3296,0.2051,0.2539,0.0391
0.0293,0.0024,0.0513,0.022,0.0024,0.0024,0.3271,0.1855,0.188,0.0366
0.0293,0.0024,0.0586,0.0317,0.0024,0.0024,0.3125,0.1758,0.1733,0.0439
0.0317,0.0024,0.0635,0.0391,0.0024,0.0024,0.3711,0.1782,0.1758,0.0488
0.0024,0.0024,0.0879,0.0439,0.0024,0.0024,0.2148,0.1099,0.1074,0.0513
0.0024,0.0024,0.1538,0.0513,0.0024,0.0024,0.1855,0.1367,0.1563,0.0317
0.0024,0.0024,0.1318,0.0391,0.0024,0.0049,0.1636,0.1343,0.1367,0.0293
0.0098,0.0024,0.0854,0.0195,0.0024,0.0024,0.1733,0.1245,0.0952,0.0391
0.0073,0.0024,0.0488,0.0269,0.0024,0.0024,0.2734,0.1489,0.0195,0.0415
0.0122,0.0024,0.0806,0.061,0.0024,0.0024,0.3052,0.1514,0.0073,0.0415
0.0024,0.0024,0.0464,0.0146,0.0024,0.0024,0.105,0.0928,0.0732,0.022
0.0024,0.0024,0.0732,0.0122,0.0024,0.0024,0.1978,0.0928,0.0562,0.0537
0.0024,0.0024,0.0586,0.0049,0.0024,0.0024,0.1685,0.0952,0.0415,0.0439
0.0098,0.0024,0.0342,0.022,0.0049,0.0024,0.1782,0.1416,0.0171,0.0391
0.0024,0.0024,0.0073,0.0098,0.0024,0.0024,0.1685,0.1245,0.0024,0.0439
0.022,0.0024,0.0122,0.0049,0.0024,0.0024,0.2417,0.1416,0.0073,0.0586
0.0195,0.0024,0.0586,0.0269,0.0024,0.0024,0.1929,0.127,0.0024,0.0513
0.0171,0.0024,0.0562,0.0366,0.0024,0.0024,0.1782,0.1221,0.0024,0.0488
0.0146,0.0024,0.0513,0.0464,0.0024,0.0024,0.1831,0.1318,0.0024,0.0464
0.0122,0.0024,0.0439,0.0464,0.0024,0.0024,0.1831,0.1294,0.0024,0.0439
0.0024,0.0024,0.0024,0.0024,0.0024,0.0024,0.2881,0.1147,0.0024,0.0317
0.0024,0.0024,0.0342,0.0146,0.0024,0.0024,0.2881,0.1221,0.0024,0.0513
0.0049,0.0024,0.0024,0.0146,0.0024,0.0024,0.2783,0.1172,0.0098,0.0684
0.0024,0.0024,0.0244,0.0146,0.0024,0.0024,0.1904,0.1221,0.0024,0.0391
0.0024,0.0024,0.0098,0.0024,0.0024,0.0024,0.0171,0.105,0.0024,0.0415
0.0024,0.0024,0.083,0.061,0.0024,0.0024,0.0122,0.083,0.0537,0.0293
0.0024,0.0024,0.0513,0.0293,0.0024,0.0024,0.0098,0.0708,0.0171,0.0317
0.0024,0.0024,0.022,0.0073,0.0024,0.0024,0.0439,0.0659,0.0024,0.0317
0.0024,0.0024,0.0024,0.0024,0.0024,0.0024,0.0293,0.0854,0.0024,0.0513
0.0024,0.0024,0.0024,0.0024,0.0024,0.0024,0.0317,0.0903,0.0049,0.0488
0.0024,0.0024,0.0464,0.0366,0.0049,0.0024,0.1294,0.0952,0.0049,0.0464
0.0098,0.0024,0.0122,0.0195,0.0024,0.0024,0.1099,0.1221,0.0049,0.0366
0.022,0.0024,0.0024,0.0049,0.0024,0.0024,0.1245,0.1343,0.0024,0.0415
0.0024,0.0024,0.0317,0.0024,0.0024,0.0024,0.1782,0.1001,0.0024,0.0537
0.0122,0.0024,0.0024,0.0049,0.0024,0.0024,0.2344,0.1392,0.0098,0.0342
0.0098,0.0024,0.0024,0.0024,0.0049,0.0024,0.2539,0.1465,0.0024,0.0317
0.0049,0.0024,0.0024,0.0024,0.0024,0.0024,0.2441,0.1392,0.0024,0.0293
0.0073,0.0024,0.0024,0.0024,0.0024,0.0024,0.2026,0.1172,0.0024,0.022
0.0073,0.0024,0.0024,0.0024,0.0024,0.0024,0.2832,0.1123,0.0513,0.0269
0.0049,0.0024,0.0024,0.0024,0.0024,0.0024,0.3076,0.1221,0.1294,0.0293
0.0195,0.0024,0.0024,0.0024,0.0024,0.0049,0.459,0.1538,0.1733,0.0439
0.0244,0.0024,0.0024,0.0024,0.0024,0.0024,0.52,0.1685,0.166,0.0317
0.0317,0.0024,0.0122,0.0024,0.0024,0.0024,0.8374,0.2051,0.3003,0.0366
0.0293,0.0024,0.1196,0.0635,0.0024,0.0073,0.9619,0.2075,0.2808,0.0635
0.0269,0.0024,0.0391,0.0073,0.0024,0.0024,0.9326,0.2051,0.437,0.0464
0.0317,0.0049,0.0659,0.0171,0.0024,0.0049,0.9277,0.2051,0.5029,0.0439
0.0415,0.0024,0.0586,0.0513,0.0024,0.0171,1.1182,0.2515,0.4443,0.0757
0.0415,0.0073,0.0635,0.0391,0.0024,0.0171,1.1523,0.2417,0.5029,0.0757
0.0391,0.0171,0.0903,0.0708,0.0024,0.0098,0.9058,0.2637,0.4199,0.0488
0.0391,0.0171,0.1074,0.0659,0.0024,0.0049,1.1133,0.2832,0.5322,0.0537
0.0391,0.0024,0.1123,0.0732,0.0024,0.0073,0.9155,0.2344,0.4639,0.061
0.0513,0.0049,0.1099,0.0757,0.0024,0.0073,0.8203,0.249,0.5298,0.0635
0.0635,0.0366,0.1514,0.0806,0.0024,0.0049,0.8862,0.2612,0.7275,0.0513
0.0757,0.0464,0.1343,0.0635,0.0024,0.0195,1.0815,0.3394,0.6714,0.1147
0.083,0.0439,0.2051,0.1147,0.0024,0.0293,1.1304,0.3735,0.6836,0.105
0.0806,0.0366,0.1904,0.105,0.0024,0.0269,1.1743,0.3589,0.6494,0.1025
0.1025,0.0244,0.1733,0.0854,0.0024,0.0122,1.1621,0.415,0.5762,0.1025
0.1025,0.0171,0.1929,0.1489,0.0024,0.0171,1.3062,0.4297,0.4663,0.1147
0.0977,0.0684,0.2051,0.1563,0.0049,0.0293,1.3159,0.4907,0.8228,0.2075
0.1221,0.1318,0.2783,0.144,0.0122,0.0293,1.3232,0.4834,1.1572,0.1733
0.1392,0.1025,0.2637,0.1587,0.0098,0.0366,1.2671,0.52,0.791,0.1929
0.1196,0.0732,0.2295,0.1343,0.0024,0.0317,1.2354,0.4761,0.8374,0.1563
0.105,0.0464,0.1782,0.1074,0.0024,0.022,0.9253,0.4712,0.6128,0.1074
0.0635,0.0073,0.1318,0.1196,0.0024,0.0024,0.7886,0.3174,0.3833,0.0684
0.0586,0.0024,0.1147,0.1099,0.0024,0.0024,0.7227,0.3149,0.3394,0.0659
0.0684,0.0073,0.1123,0.1074,0.0024,0.0073,0.8789,0.3174,0.3101,0.0684
0.0635,0.0024,0.0537,0.0806,0.0024,0.0024,0.9619,0.3491,0.2173,0.1001
0.0537,0.0098,0.0757,0.0757,0.0024,0.0024,0.8472,0.3223,0.2734,0.0977
0.061,0.0024,0.0806,0.0977,0.0024,0.0098,0.9131,0.2759,0.3638,0.0732
0.0806,0.0024,0.0806,0.0879,0.0024,0.0098,0.9912,0.249,0.1953,0.0684
0.0415,0.0024,0.0366,0.0537,0.0024,0.0024,0.6885,0.2222,0.144,0.0586
0.0366,0.0024,0.0269,0.0366,0.0024,0.0024,0.6421,0.2124,0.1318,0.0562
0.0317,0.0024,0.0317,0.0366,0.0024,0.0024,0.4736,0.1611,0.0708,0.0464
0.022,0.0024,0.0073,0.0244,0.0024,0.0024,0.5688,0.1685,0.0171,0.0562
0.0098,0.0024,0.0024,0.0098,0.0024,0.0024,0.5786,0.1733,0.022,0.0635
0.0171,0.0024,0.0024,0.0024,0.0024,0.0024,0.4199,0.1465,0.0098,0.0659
0.0171,0.0024,0.022,0.0049,0.0024,0.0024,0.3662,0.1465,0.0757,0.0562
0.022,0.0024,0.0513,0.0049,0.0024,0.0024,0.3979,0.1538,0.0928,0.0537
0.0415,0.0024,0.0293,0.0024,0.0024,0.0024,0.4346,0.1758,0.1123,0.0513
0.0269,0.0024,0.0049,0.0024,0.0024,0.0024,0.4028,0.1611,0.1245,0.0659
0.0464,0.0024,0.0024,0.0024,0.0024,0.0024,0.2808,0.1172,0.0195,0.0488
0.0464,0.0024,0.0024,0.0098,0.0049,0.0024,0.3027,0.1245,0.061,0.0391
0.0293,0.0024,0.0024,0.0024,0.0024,0.0024,0.2466,0.1538,0.0415,0.0439
0.022,0.0024,0.0024,0.0024,0.0024,0.0024,0.2222,0.1538,0.0293,0.0439
0.0195,0.0024,0.0024,0.0024,0.0024,0.0024,0.2344,0.1563,0.0269,0.0391
0.0146,0.0024,0.0024,0.0024,0.0024,0.0024,0.2954,0.1538,0.0342,0.0391
0.0024,0.0024,0.0244,0.0073,0.0024,0.0024,0.3174,0.1074,0.0317,0.0684
0.0024,0.0024,0.0342,0.0049,0.0024,0.0024,0.2808,0.0977,0.0195,0.0635
0.0024,0.0024,0.0195,0.0562,0.0024,0.0024,0.2832,0.1025,0.0024,0.0537
0.0024,0.0024,0.0024,0.0024,0.0024,0.0024,0.2197,0.1074,0.0024,0.0366
0.0024,0.0024,0.0024,0.0024,0.0049,0.0024,0.21,0.0928,0.0024,0.0317
0.0073,0.0024,0.0024,0.0391,0.0024,0.0024,0.3369,0.1221,0.0073,0.0464
0.0098,0.0024,0.0024,0.0391,0.0024,0.0024,0.4199,0.1367,0.0098,0.0464
0.0024,0.0024,0.0439,0.0293,0.0024,0.0024,0.3247,0.1196,0.0024,0.0488
0.0122,0.0024,0.0024,0.0049,0.0024,0.0024,0.5225,0.2075,0.0073,0.0684
0.0146,0.0024,0.0366,0.0195,0.0024,0.0024,0.2588,0.1587,0.0024,0.0488
0.0098,0.0024,0.0122,0.0879,0.0024,0.0024,0.4272,0.1587,0.0024,0.0781
0.0122,0.0024,0.061,0.0708,0.0049,0.0024,0.4443,0.1636,0.0098,0.0757
0.0098,0.0024,0.0586,0.0732,0.0024,0.0024,0.415,0.1538,0.0146,0.0708
0.0024,0.0024,0.022,0.0269,0.0024,0.0024,0.3296,0.1294,0.0049,0.0635
0.0024,0.0024,0.0024,0.022,0.0024,0.0024,0.3296,0.1465,0.0024,0.061
0.0024,0.0024,0.0049,0.0562,0.0024,0.0024,0.3711,0.1465,0.0024,0.0415
0.0024,0.0024,0.0342,0.0366,0.0049,0.0024,0.3979,0.1514,0.0024,0.0391
0.0024,0.0024,0.0708,0.0439,0.0024,0.0024,0.4468,0.1563,0.0024,0.0317
0.0024,0.0024,0.0391,0.0293,0.0024,0.0024,0.3076,0.1245,0.0024,0.0195
0.0171,0.0024,0.0439,0.0024,0.0024,0.0024,0.4785,0.188,0.0098,0.0366
0.0024,0.0024,0.0391,0.0024,0.0024,0.0024,0.271,0.1343,0.0024,0.0269
0.0024,0.0024,0.0244,0.0195,0.0024,0.0024,0.3467,0.1465,0.0024,0.0366
0.0024,0.0024,0.0171,0.0244,0.0024,0.0024,0.3223,0.1392,0.0024,0.0366
