0.0049,0.0024,0.0024,0.0024,0.0024,0.0024,0.0903,0.0586,0.0024,0.0195
0.0415,0.0024,0.0024,0.0024,0.0024,0.0024,0.0708,0.061,0.0024,0.0122
0.0024,0.0024,0.0024,0.0024,0.0024,0.0024,0.0366,0.022,0.0024,0.0122
0.0024,0.0024,0.0024,0.0024,0.0024,0.0024,0.0757,0.0244,0.0024,0.0146
0.0024,0.0024,0.0024,0.0024,0.0024,0.0024,0.0293,0.0244,0.0024,0.0269
0.0024,0.0024,0.0024,0.0024,0.0024,0.0024,0.1099,0.0293,0.0024,0.0195
0.0024,0.0024,0.0024,0.0024,0.0024,0.0024,0.0928,0.022,0.0024,0.0342
0.0024,0.0024,0.0024,0.0024,0.0024,0.0024,0.1538,0.022,0.0024,0.0366
0.0073,0.0024,0.0024,0.0024,0.0024,0.0024,0.1489,0.0244,0.0024,0.0293
0.0024,0.0024,0.0024,0.0024,0.0024,0.0024,0.1074,0.022,0.0024,0.0195
0.0049,0.0024,0.0024,0.0024,0.0024,0.0024,0.0415,0.0293,0.0024,0.0366
0.0024,0.0024,0.0024,0.0024,0.0024,0.0024,0.0659,0.0293,0.0024,0.0415
0.0024,0.0024,0.0024,0.0024,0.0024,0.0024,0.0586,0.0244,0.0024,0.0391
0.0024,0.0024,0.0024,0.0024,0.0024,0.0024,0.0757,0.0293,0.0024,0.022
0.0024,0.0024,0.0024,0.0024,0.0024,0.0024,0.0854,0.0342,0.0024,0.0195
0.0024,0.0024,0.0024,0.0024,0.0024,0.0024,0.0952,0.0195,0.0024,0.0244
0.0024,0.0024,0.0024,0.0024,0.0024,0.0024,0.0366,0.0269,0.0024,0.0391
0.0024,0.0024,0.0024,0.0024,0.0024,0.0024,0.0757,0.0439,0.0024,0.0146
0.0024,0.0024,0.0024,0.0024,0.0024,0.0024,0.1147,0.0391,0.0024,0.0171
0.0024,0.0024,0.0024,0.0024,0.0024,0.0024,0.0757,0.0293,0.0024,0.0244
0.144,0.0024,0.0024,0.0024,0.0024,0.0024,0.0391,0.0269,0.0024,0.0293
0.0244,0.0024,0.0024,0.0024,0.0024,0.0024,0.0269,0.0146,0.0024,0.0024
0.0146,0.0024,0.0049,0.0024,0.0024,0.0024,0.0122,0.0146,0.0024,0.0024
0.0146,0.0024,0.0024,0.0024,0.0024,0.0024,0.0098,0.0146,0.0024,0.0024
0.0024,0.0024,0.0024,0.0024,0.0024,0.0024,0.0269,0.0098,0.0024,0.0024
0.0342,0.0024,0.0024,0.0024,0.0024,0.0024,0.0464,0.0122,0.0024,0.022
0.0171,0.0024,0.0049,0.0024,0.0024,0.0024,0.0098,0.0098,0.0024,0.0122
0.0024,0.0024,0.0024,0.0024,0.0024,0.0024,0.0122,0.0122,0.0024,0.0122
0.0024,0.0024,0.0024,0.0024,0.0024,0.0024,0.0073,0.0122,0.0024,0.0098
0.0195,0.0024,0.0024,0.0024,0.0024,0.0024,0.0195,0.0146,0.0024,0.0024
0.022,0.0024,0.0024,0.0024,0.0024,0.0024,0.0342,0.0269,0.0024,0.0024
0.0024,0.0024,0.0024,0.0024,0.0024,0.0024,0.0122,0.0049,0.0024,0.0024
0.0024,0.0024,0.0024,0.0024,0.0024,0.0024,0.0146,0.0073,0.0024,0.0098
0.0024,0.0024,0.0024,0.0024,0.0024,0.0024,0.0098,0.0122,0.0024,0.0146
0.0024,0.0024,0.0024,0.0024,0.0024,0.0024,0.022,0.0122,0.0024,0.0098
0.0024,0.0024,0.0024,0.0024,0.0024,0.0024,0.0464,0.0317,0.0024,0.0317
0.0024,0.0024,0.0024,0.0024,0.0024,0.0024,0.0732,0.0342,0.0024,0.022
0.0024,0.0024,0.0024,0.0024,0.0024,0.0024,0.0171,0.0244,0.0024,0.0464
0.0024,0.0024,0.0024,0.0024,0.0024,0.0024,0.0537,0.0317,0.0024,0.0391
0.0024,0.0024,0.0024,0.0024,0.0049,0.0024,0.0244,0.0342,0.0024,0.0317
0.0024,0.0024,0.0024,0.0024,0.0049,0.0024,0.0049,0.0293,0.0024,0.0195
0.0024,0.0024,0.0024,0.0024,0.0049,0.0024,0.0024,0.0171,0.0024,0.0122
0.0024,0.0024,0.0024,0.0024,0.0024,0.0024,0.0098,0.0171,0.0024,0.0171
0.0049,0.0024,0.0024,0.0024,0.0049,0.0024,0.0073,0.0269,0.0024,0.0269
0.0024,0.0024,0.0024,0.0024,0.0024,0.0024,0.0024,0.0122,0.0024,0.022
0.0073,0.0024,0.0024,0.0024,0.0049,0.0024,0.0049,0.0269,0.0024,0.0122
0.0903,0.0024,0.0024,0.0024,0.0024,0.0024,0.0586,0.0171,0.0024,0.0464
0.0171,0.0024,0.0024,0.0024,0.0024,0.0024,0.0391,0.0195,0.0024,0.0317
0.0024,0.0024,0.0024,0.0024,0.0024,0.0024,0.0439,0.0244,0.0024,0.0269
0.0024,0.0024,0.0024,0.0024,0.0024,0.0024,0.0024,0.0098,0.0024,0.0366
0.0073,0.0024,0.0024,0.0024,0.0024,0.0024,0.0049,0.0122,0.0024,0.0317
0.0024,0.0024,0.0024,0.0024,0.0024,0.0024,0.0269,0.0146,0.0024,0.0171
0.0024,0.0024,0.0024,0.0024,0.0024,0.0024,0.0024,0.0146,0.0024,0.0342
0.0024,0.0024,0.0024,0.0024,0.0024,0.0024,0.0098,0.0049,0.0024,0.0171
0.0024,0.0024,0.0024,0.0024,0.0024,0.0024,0.0122,0.0073,0.0024,0.0195
0.0024,0.0024,0.0024,0.0024,0.0024,0.0024,0.0122,0.0122,0.0024,0.0293
0.0024,0.0024,0.0024,0.0024,0.0024,0.0024,0.0171,0.0146,0.0024,0.0513
0.0122,0.0024,0.0024,0.0024,0.0024,0.0024,0.0928,0.0122,0.0024,0.0073
0.0024,0.0024,0.0024,0.0024,0.0024,0.0024,0.0195,0.0098,0.0024,0.0146
0.0049,0.0024,0.0024,0.0024,0.0024,0.0024,0.0684,0.0195,0.0024,0.0146
0.0024,0.0024,0.0024,0.0024,0.0024,0.0024,0.0244,0.0146,0.0024,0.0293
0.0024,0.0024,0.0024,0.0024,0.0024,0.0024,0.0317,0.0195,0.0024,0.0293
0.0049,0.0024,0.0024,0.0024,0.0024,0.0024,0.0684,0.0171,0.0024,0.0269
0.0024,0.0024,0.0024,0.0024,0.0024,0.0024,0.0244,0.0122,0.0024,0.0146
0.0098,0.0024,0.0024,0.0024,0.0024,0.0024,0.0562,0.0513,0.0024,0.0415
0.0024,0.0024,0.0024,0.0024,0.0024,0.0024,0.0269,0.0122,0.0024,0.0293
0.0024,0.0024,0.0024,0.0024,0.0024,0.0024,0.0146,0.0146,0.0024,0.0195
0.0073,0.0024,0.0024,0.0024,0.0024,0.0024,0.0195,0.0317,0.0024,0.0244
0.0024,0.0024,0.0024,0.0024,0.0024,0.0024,0.0122,0.0098,0.0024,0.0293
0.0024,0.0024,0.0049,0.0024,0.0024,0.0024,0.0391,0.0415,0.0024,0.0171
0.0244,0.0024,0.0024,0.0024,0.0024,0.0024,0.0073,0.022,0.0024,0.0073
0.0488,0.0024,0.0024,0.0024,0.0024,0.0024,0.0098,0.0513,0.0024,0.0024
0.0293,0.0024,0.0024,0.0024,0.0024,0.0024,0.0024,0.0513,0.0024,0.0049
0.0024,0.0024,0.0024,0.0024,0.0024,0.0024,0.0342,0.0366,0.0024,0.0391
0.0024,0.0024,0.0024,0.0024,0.0024,0.0024,0.0488,0.0488,0.0024,0.0342
0.0024,0.0024,0.0024,0.0024,0.0024,0.0024,0.0659,0.0464,0.0024,0.0195
0.0024,0.0024,0.0024,0.0024,0.0024,0.0024,0.105,0.1855,0.0024,0.0439
0.0024,0.0024,0.0024,0.0024,0.0024,0.0024,0.0781,0.1514,0.0024,0.0317
0.0024,0.0024,0.0024,0.0024,0.0024,0.0024,0.0806,0.1172,0.0024,0.0122
0.0024,0.0024,0.0024,0.0024,0.0024,0.0024,0.0732,0.1001,0.0024,0.0293
0.0024,0.0024,0.0024,0.0024,0.0024,0.0024,0.0659,0.0952,0.0024,0.0146
0.0024,0.0024,0.0024,0.0024,0.0024,0.0024,0.0659,0.0781,0.0024,0.0049
0.022,0.0024,0.0024,0.0024,0.0024,0.0024,0.1074,0.1855,0.0024,0.022
0.0024,0.0024,0.0024,0.0024,0.0024,0.0024,0.0928,0.1099,0.0024,0.0073
0.0024,0.0024,0.0024,0.0024,0.0024,0.0024,0.0854,0.105,0.0024,0.0024
0.0024,0.0024,0.0024,0.0024,0.0024,0.0024,0.0952,0.0928,0.0024,0.0122
0.0024,0.0024,0.0024,0.0024,0.0024,0.0024,0.0781,0.0562,0.0024,0.0366
0.0073,0.0024,0.0024,0.0024,0.0024,0.0024,0.0781,0.1514,0.0024,0.0195
0.0049,0.0024,0.0024,0.0024,0.0024,0.0024,0.0708,0.2148,0.0024,0.0024
0.0073,0.0024,0.0049,0.0024,0.0024,0.0024,0.0977,0.188,0.0024,0.0146
0.0024,0.0024,0.0024,0.0024,0.0024,0.0024,0.1074,0.1123,0.0024,0.0195
0.0024,0.0024,0.0024,0.0024,0.0024,0.0024,0.0952,0.1099,0.0049,0.0171
0.0024,0.0024,0.0024,0.0024,0.0024,0.0024,0.1294,0.1074,0.0024,0.0073
0.0024,0.0024,0.0024,0.0024,0.0024,0.0024,0.0806,0.0903,0.0024,0.022
0.0024,0.0024,0.0024,0.0024,0.0024,0.0024,0.0562,0.1001,0.0024,0.0269
0.0024,0.0024,0.0024,0.0024,0.0024,0.0024,0.0903,0.0903,0.0024,0.0269
0.0024,0.0024,0.0024,0.0024,0.0024,0.0024,0.061,0.0757,0.0024,0.0171
0.0024,0.0024,0.0024,0.0024,0.0024,0.0024,0.0781,0.1147,0.0024,0.0171
0.0024,0.0024,0.0024,0.0024,0.0024,0.0024,0.061,0.0903,0.0024,0.0098
0.0024,0.0024,0.0024,0.0024,0.0024,0.0024,0.0708,0.1636,0.0024,0.0293
0.0024,0.0024,0.0024,0.0024,0.0024,0.0024,0.0854,0.1636,0.0024,0.0098
0.0171,0.0024,0.0024,0.0024,0.0024,0.0024,0.0952,0.2344,0.0024,0.0366
0.0244,0.0024,0.0024,0.0024,0.0024,0.0024,0.0708,0.1782,0.0024,0.0317
0.0244,0.0024,0.0024,0.0024,0.0024,0.0024,0.0879,0.1587,0.0024,0.0391
0.0049,0.0024,0.0024,0.0024,0.0024,0.0024,0.0781,0.0952,0.0024,0.022
0.0024,0.0024,0.0024,0.0024,0.0024,0.0024,0.0806,0.1416,0.0024,0.0073
0.0073,0.0024,0.0024,0.0024,0.0024,0.0024,0.1343,0.1538,0.0024,0.0171
0.0122,0.0024,0.0024,0.0024,0.0049,0.0024,0.1123,0.1587,0.0049,0.0098
0.0049,0.0024,0.0024,0.0024,0.0024,0.0024,0.1147,0.0757,0.0024,0.0171
0.0024,0.0024,0.0024,0.0024,0.0024,0.0024,0.105,0.0977,0.0024,0.0146
0.0024,0.0024,0.0024,0.0024,0.0049,0.0024,0.0366,0.0977,0.0024,0.0293
0.0049,0.0024,0.0024,0.0024,0.0024,0.0024,0.0806,0.1318,0.0024,0.0098
0.0024,0.0024,0.0024,0.0024,0.0024,0.0024,0.0854,0.1172,0.0098,0.0171
0.0049,0.0024,0.0024,0.0024,0.0024,0.0024,0.1172,0.1489,0.0073,0.0317
0.0024,0.0024,0.0024,0.0024,0.0024,0.0024,0.0806,0.105,0.0024,0.022
0.0024,0.0024,0.0024,0.0024,0.0024,0.0024,0.0806,0.1196,0.0024,0.022
0.0024,0.0024,0.0024,0.0024,0.0024,0.0024,0.0708,0.1001,0.0049,0.0073
0.0024,0.0024,0.0024,0.0024,0.0024,0.0024,0.0928,0.1196,0.0024,0.022
0.0073,0.0024,0.0024,0.0024,0.0024,0.0024,0.0781,0.1318,0.0024,0.0171
0.0513,0.0024,0.0024,0.0024,0.0024,0.0024,0.1538,0.166,0.0269,0.0293
0.1465,0.0024,0.0024,0.0024,0.0049,0.0024,0.1465,0.21,0.0049,0.0122
0.0342,0.0024,0.0024,0.0024,0.0024,0.0024,0.1489,0.1465,0.0024,0.0122
0.0073,0.0024,0.0024,0.0024,0.0024,0.0024,0.1196,0.1172,0.0024,0.0024
0.0024,0.0024,0.0024,0.0024,0.0024,0.0024,0.1196,0.0562,0.0024,0.022
0.0024,0.0024,0.0024,0.0024,0.0024,0.0024,0.1196,0.083,0.0024,0.0195
0.0049,0.0024,0.0024,0.0024,0.0024,0.0024,0.0952,0.061,0.0024,0.0195
0.0049,0.0024,0.0024,0.0024,0.0024,0.0024,0.0879,0.0537,0.0024,0.0049
0.0171,0.0024,0.0024,0.0024,0.0049,0.0024,0.0537,0.083,0.0024,0.0073
0.0122,0.0024,0.0024,0.0024,0.0024,0.0024,0.0635,0.0806,0.0024,0.0049
0.0024,0.0024,0.0024,0.0024,0.0024,0.0024,0.0806,0.0781,0.0024,0.0195
0.0879,0.0024,0.0024,0.0024,0.0024,0.0024,0.0586,0.0928,0.0024,0.0171
0.1709,0.0024,0.0024,0.0024,0.0024,0.0024,0.0293,0.1392,0.0024,0.0024
0.1953,0.0024,0.0024,0.0024,0.0024,0.0024,0.0293,0.1074,0.0024,0.0122
0.1392,0.0024,0.0024,0.0024,0.0024,0.0024,0.0879,0.1343,0.0024,0.0024
0.0171,0.0024,0.0024,0.0024,0.0024,0.0024,0.0537,0.0732,0.0024,0.0098
0.0024,0.0024,0.0024,0.0024,0.0024,0.0024,0.1123,0.0635,0.0024,0.0195
0.2222,0.0024,0.0024,0.0024,0.0024,0.0024,0.1196,0.1758,0.0073,0.022
0.1392,0.0024,0.0024,0.0024,0.0024,0.0024,0.0244,0.105,0.0024,0.0244
0.144,0.0024,0.0024,0.0024,0.0024,0.0024,0.0586,0.144,0.0024,0.022
0.1465,0.0024,0.0024,0.0024,0.0024,0.0024,0.0732,0.1172,0.0024,0.0195
0.0757,0.0024,0.0024,0.0024,0.0024,0.0024,0.0098,0.0757,0.0024,0.0195
0.105,0.0024,0.0024,0.0024,0.0024,0.0024,0.0879,0.0977,0.0024,0.022
0.0757,0.0024,0.0024,0.0024,0.0024,0.0024,0.0659,0.0537,0.0024,0.0293
0.0293,0.0024,0.0024,0.0024,0.0024,0.0024,0.0732,0.0464,0.0024,0.0098
0.0024,0.0024,0.0024,0.0024,0.0024,0.0024,0.1172,0.1392,0.0024,0.022
0.0024,0.0024,0.0024,0.0024,0.0024,0.0024,0.0879,0.1245,0.0049,0.0171
0.0024,0.0024,0.0024,0.0024,0.0024,0.0024,0.1147,0.1025,0.0024,0.0171
0.0024,0.0024,0.0024,0.0024,0.0024,0.0024,0.0903,0.0317,0.0049,0.0073
0.0342,0.0024,0.0024,0.0024,0.0024,0.0024,0.0854,0.0464,0.0024,0.0098
0.0024,0.0024,0.0024,0.0024,0.0024,0.0024,0.1001,0.0415,0.0024,0.0146
0.0024,0.0024,0.0024,0.0024,0.0024,0.0024,0.0635,0.0562,0.0024,0.022
0.0024,0.0024,0.0024,0.0024,0.0024,0.0024,0.0464,0.0415,0.0024,0.0098
0.0146,0.0024,0.0024,0.0024,0.0024,0.0024,0.0757,0.1343,0.0024,0.0293
0.0024,0.0024,0.0024,0.0024,0.0024,0.0024,0.1074,0.1245,0.0024,0.0171
0.0073,0.0024,0.0024,0.0024,0.0024,0.0024,0.0928,0.144,0.0024,0.0293
0.0049,0.0024,0.0024,0.0024,0.0024,0.0024,0.0122,0.0806,0.0024,0.0317
0.0269,0.0024,0.0024,0.0024,0.0024,0.0024,0.0171,0.1099,0.0024,0.0049
0.0415,0.0024,0.0024,0.0024,0.0024,0.0024,0.0586,0.1001,0.0024,0.0098
0.0488,0.0024,0.0024,0.0024,0.0024,0.0024,0.0244,0.083,0.0024,0.0122
0.0195,0.0024,0.0024,0.0024,0.0024,0.0024,0.0439,0.061,0.0024,0.0024
0.0195,0.0024,0.0024,0.0024,0.0024,0.0024,0.0391,0.0537,0.0073,0.0024
0.1978,0.0366,0.0024,0.0024,0.0024,0.0024,0.0122,0.2295,0.0049,0.0024
0.0928,0.0024,0.0024,0.0024,0.0024,0.0024,0.0049,0.1538,0.0024,0.0098
0.0391,0.0024,0.0024,0.0024,0.0024,0.0024,0.0171,0.1465,0.0024,0.0024
0.0464,0.0024,0.0024,0.0024,0.0024,0.0024,0.0146,0.144,0.0024,0.022
0.0635,0.0024,0.0024,0.0024,0.0024,0.0024,0.0269,0.1196,0.0024,0.022
0.0195,0.0024,0.0024,0.0024,0.0024,0.0024,0.0146,0.0781,0.0024,0.0024
0.1196,0.0024,0.0024,0.0024,0.0024,0.0024,0.0024,0.0903,0.0024,0.0024
0.0439,0.0024,0.0024,0.0024,0.0024,0.0024,0.0073,0.0464,0.0024,0.0024
0.0366,0.0024,0.0024,0.0024,0.0024,0.0024,0.0122,0.0464,0.0024,0.0024
0.0122,0.0024,0.0024,0.0024,0.0024,0.0024,0.0049,0.1514,0.0024,0.0024
0.0073,0.0024,0.0024,0.0024,0.0024,0.0024,0.0098,0.0684,0.0024,0.0024
0.0024,0.0024,0.0024,0.0024,0.0024,0.0024,0.0049,0.0562,0.0024,0.0073
0.0024,0.0024,0.0024,0.0024,0.0024,0.0024,0.0049,0.0391,0.0024,0.0073
0.0122,0.0024,0.0024,0.0024,0.0024,0.0024,0.0586,0.0854,0.0024,0.0024
0.0024,0.0024,0.0024,0.0024,0.0024,0.0024,0.0342,0.0635,0.0024,0.0049
0.0073,0.0024,0.0024,0.0024,0.0024,0.0024,0.0464,0.0757,0.0024,0.0024
0.0195,0.0024,0.0024,0.0024,0.0024,0.0024,0.0562,0.0977,0.0024,0.0049
0.0049,0.0024,0.0024,0.0024,0.0024,0.0024,0.0513,0.0635,0.0024,0.0024
0.0122,0.0024,0.0024,0.0024,0.0049,0.0024,0.0244,0.1147,0.0024,0.0122
0.0024,0.0024,0.0024,0.0024,0.0024,0.0024,0.0366,0.0879,0.0024,0.0024
0.0146,0.0024,0.0024,0.0024,0.0024,0.0024,0.0342,0.0903,0.0024,0.0024
0.0122,0.0024,0.0024,0.0024,0.0024,0.0024,0.0415,0.061,0.0024,0.0024
0.0024,0.0024,0.0024,0.0024,0.0049,0.0024,0.0757,0.0586,0.0024,0.0098
0.0024,0.0024,0.0024,0.0024,0.0024,0.0024,0.0513,0.0635,0.0024,0.0024
0.0024,0.0024,0.0024,0.0024,0.0024,0.0024,0.0391,0.0537,0.0024,0.0098
0.0171,0.0024,0.0024,0.0024,0.0024,0.0024,0.0122,0.0391,0.0024,0.0024
0.0049,0.0024,0.0024,0.0024,0.0024,0.0024,0.0171,0.0562,0.0024,0.0024
0.0024,0.0024,0.0024,0.0024,0.0024,0.0024,0.0537,0.083,0.0024,0.0024
0.022,0.0024,0.0024,0.0024,0.0024,0.0024,0.0269,0.0903,0.0024,0.0024
0.0195,0.0024,0.0024,0.0024,0.0024,0.0024,0.0488,0.1294,0.0024,0.0122
0.0024,0.0024,0.0049,0.0024,0.0024,0.0024,0.0342,0.0586,0.0024,0.0146
0.0024,0.0024,0.0049,0.0024,0.0024,0.0024,0.0073,0.0562,0.0024,0.0195
0.0024,0.0024,0.0024,0.0024,0.0024,0.0024,0.0244,0.0732,0.0024,0.0024
0.0024,0.0024,0.0024,0.0024,0.0049,0.0024,0.0098,0.0293,0.0024,0.0024
0.0024,0.0024,0.0049,0.0024,0.0024,0.0024,0.0366,0.0635,0.0024,0.0024
0.0024,0.0024,0.0024,0.0024,0.0024,0.0024,0.0122,0.0391,0.0024,0.0122
0.0073,0.0024,0.0049,0.0024,0.0024,0.0024,0.1099,0.1318,0.0024,0.022
0.0024,0.0024,0.0024,0.0024,0.0024,0.0024,0.0366,0.0635,0.0024,0.0171
0.0024,0.0024,0.0024,0.0024,0.0049,0.0024,0.0269,0.0488,0.0024,0.0146
0.0171,0.0024,0.0024,0.0024,0.0024,0.0024,0.1343,0.0757,0.0024,0.022
0.0122,0.0024,0.0024,0.0024,0.0024,0.0024,0.0708,0.0415,0.0024,0.0073
0.0195,0.0024,0.0024,0.0024,0.0024,0.0024,0.0488,0.083,0.0024,0.0073
0.0244,0.0024,0.0024,0.0024,0.0024,0.0024,0.0659,0.0928,0.0024,0.0024
0.0024,0.0024,0.0024,0.0024,0.0024,0.0024,0.0244,0.0537,0.0024,0.0049
0.0732,0.0024,0.0024,0.0024,0.0049,0.0024,0.0488,0.1025,0.0024,0.0024
0.0439,0.0024,0.0024,0.0024,0.0024,0.0024,0.0757,0.0757,0.0024,0.0049
0.1611,0.0024,0.0024,0.0024,0.0024,0.0024,0.0757,0.1318,0.0024,0.0049
0.0171,0.0024,0.0024,0.0024,0.0049,0.0024,0.0317,0.0684,0.0024,0.0024
0.0098,0.0024,0.0024,0.0024,0.0024,0.0024,0.0903,0.0659,0.0024,0.0024
0.0073,0.0024,0.0024,0.0024,0.0024,0.0024,0.1196,0.0586,0.0024,0.0024
0.0024,0.0024,0.0024,0.0024,0.0024,0.0024,0.0952,0.0684,0.0024,0.0024
0.0024,0.0024,0.0024,0.0024,0.0024,0.0024,0.1538,0.0659,0.0024,0.0146
0.0024,0.0024,0.0024,0.0024,0.0024,0.0024,0.1416,0.0635,0.0024,0.0146
0.0024,0.0024,0.0024,0.0024,0.0024,0.0024,0.1099,0.0464,0.0024,0.0024
0.0049,0.0024,0.0024,0.0024,0.0024,0.0024,0.105,0.0708,0.0024,0.0098
0.0073,0.0024,0.0024,0.0024,0.0024,0.0024,0.0757,0.0757,0.0024,0.0049
0.0049,0.0024,0.0024,0.0024,0.0024,0.0024,0.1294,0.0781,0.0024,0.0171
0.0024,0.0024,0.0024,0.0024,0.0024,0.0024,0.0684,0.0366,0.0024,0.0098
0.0024,0.0024,0.0024,0.0024,0.0024,0.0024,0.0928,0.0708,0.0024,0.0024
0.0049,0.0024,0.0024,0.0024,0.0024,0.0024,0.0928,0.061,0.0024,0.0024
0.0024,0.0024,0.0024,0.0024,0.0024,0.0024,0.0903,0.0537,0.0024,0.0049
0.0024,0.0024,0.0024,0.0024,0.0024,0.0024,0.0854,0.0439,0.0024,0.0049
0.0024,0.0024,0.0024,0.0024,0.0024,0.0024,0.083,0.0684,0.0024,0.0024
0.0049,0.0024,0.0024,0.0024,0.0024,0.0024,0.0757,0.0708,0.0024,0.0024
0.0024,0.0024,0.0024,0.0024,0.0024,0.0024,0.061,0.0732,0.0024,0.0024
0.0024,0.0024,0.0024,0.0024,0.0024,0.0024,0.0537,0.0635,0.0024,0.0024
0.0024,0.0024,0.0024,0.0024,0.0024,0.0024,0.0708,0.0684,0.0024,0.0024
0.0024,0.0024,0.0024,0.0024,0.0024,0.0024,0.0391,0.0464,0.0024,0.0024
0.0024,0.0024,0.0049,0.0024,0.0024,0.0024,0.0488,0.0391,0.0024,0.0024
0.0024,0.0024,0.0024,0.0024,0.0024,0.0024,0.1147,0.0659,0.0024,0.0024
0.0024,0.0024,0.0024,0.0024,0.0024,0.0024,0.1367,0.0635,0.0024,0.0049
0.0024,0.0024,0.0024,0.0024,0.0024,0.0024,0.1099,0.0439,0.0024,0.0024
0.0024,0.0024,0.0024,0.0024,0.0024,0.0024,0.061,0.0708,0.0024,0.0024
0.0024,0.0024,0.0024,0.0024,0.0024,0.0024,0.0366,0.0464,0.0024,0.0024
0.0024,0.0024,0.0024,0.0024,0.0024,0.0024,0.0513,0.061,0.0024,0.0024
0.0024,0.0024,0.0024,0.0024,0.0024,0.0024,0.1172,0.0537,0.0024,0.0024
0.0024,0.0024,0.0024,0.0024,0.0024,0.0024,0.1343,0.0562,0.0024,0.0049
0.0049,0.0024,0.0024,0.0024,0.0024,0.0024,0.1294,0.0659,0.0024,0.0024
0.0024,0.0024,0.0024,0.0024,0.0024,0.0024,0.1392,0.0488,0.0024,0.0024
0.0024,0.0024,0.0024,0.0024,0.0024,0.0024,0.1318,0.0488,0.0024,0.0073
0.0024,0.0024,0.0024,0.0024,0.0024,0.0024,0.1221,0.0732,0.0024,0.0024
0.0024,0.0024,0.0024,0.0024,0.0024,0.0024,0.1221,0.0464,0.0024,0.0024
0.0024,0.0024,0.0024,0.0024,0.0024,0.0024,0.0977,0.0708,0.0024,0.0024
0.0024,0.0024,0.0024,0.0024,0.0024,0.0049,0.1343,0.0635,0.0024,0.0024
0.0024,0.0024,0.0024,0.0024,0.0024,0.0024,0.0879,0.0659,0.0024,0.0024
0.0195,0.0024,0.0024,0.0024,0.0024,0.0024,0.0928,0.0586,0.0024,0.0024
0.0146,0.0024,0.0024,0.0024,0.0024,0.0024,0.0732,0.0513,0.0024,0.0024
0.0049,0.0024,0.0024,0.0024,0.0049,0.0024,0.1147,0.0684,0.0024,0.0024
0.0073,0.0024,0.0024,0.0024,0.0024,0.0024,0.1001,0.0562,0.0024,0.0024
0.0024,0.0024,0.0024,0.0024,0.0024,0.0024,0.1025,0.0879,0.0024,0.0098
0.0098,0.0024,0.0024,0.0024,0.0024,0.0024,0.1392,0.105,0.0024,0.0122
0.0146,0.0024,0.0024,0.0024,0.0024,0.0024,0.1685,0.0952,0.0024,0.0244
0.0024,0.0024,0.0024,0.0024,0.0024,0.0024,0.1538,0.0781,0.0024,0.0269
0.0024,0.0024,0.0024,0.0024,0.0024,0.0024,0.0977,0.0269,0.0024,0.0122
0.0024,0.0024,0.0024,0.0024,0.0024,0.0024,0.0854,0.0391,0.0024,0.0073
0.0049,0.0024,0.0024,0.0024,0.0024,0.0024,0.1123,0.061,0.0024,0.0244
0.0024,0.0024,0.0024,0.0024,0.0024,0.0024,0.1172,0.0708,0.0024,0.0049
0.0024,0.0024,0.0024,0.0024,0.0024,0.0024,0.0977,0.0586,0.0024,0.0171
0.0024,0.0024,0.0024,0.0024,0.0024,0.0024,0.0708,0.0635,0.0024,0.0073
0.0024,0.0024,0.0024,0.0024,0.0024,0.0024,0.0879,0.0635,0.0024,0.0024
0.0073,0.0024,0.0024,0.0024,0.0024,0.0024,0.1318,0.0757,0.0024,0.0122
0.0024,0.0024,0.0024,0.0024,0.0049,0.0024,0.1074,0.0293,0.0024,0.0098
0.0024,0.0024,0.0024,0.0024,0.0024,0.0024,0.0952,0.0439,0.0024,0.0122
0.0024,0.0024,0.0024,0.0024,0.0049,0.0024,0.0903,0.0684,0.0024,0.022
0.0024,0.0024,0.0024,0.0024,0.0024,0.0024,0.083,0.061,0.0024,0.0098
0.0024,0.0024,0.0024,0.0024,0.0024,0.0024,0.0757,0.0464,0.0024,0.0146
0.0024,0.0024,0.0024,0.0024,0.0024,0.0024,0.1123,0.0488,0.0024,0.0122
0.0024,0.0024,0.0024,0.0024,0.0024,0.0024,0.1123,0.0708,0.0024,0.0122
0.0024,0.0024,0.0024,0.0024,0.0024,0.0024,0.1001,0.061,0.0024,0.0024
0.0049,0.0024,0.0024,0.0024,0.0024,0.0024,0.0928,0.0659,0.0024,0.0122
0.0049,0.0024,0.0024,0.0024,0.0024,0.0024,0.0903,0.061,0.0024,0.0269
0.0073,0.0024,0.0024,0.0024,0.0024,0.0024,0.0806,0.0464,0.0024,0.0024
0.0024,0.0024,0.0024,0.0024,0.0024,0.0024,0.1465,0.0684,0.0024,0.0024
0.0024,0.0024,0.0024,0.0024,0.0024,0.0024,0.1147,0.0439,0.0024,0.0098
0.0024,0.0024,0.0024,0.0024,0.0024,0.0024,0.0879,0.0635,0.0024,0.0171
0.0073,0.0024,0.0024,0.0024,0.0024,0.0024,0.0806,0.0732,0.0024,0.0244
0.0024,0.0024,0.0024,0.0024,0.0024,0.0024,0.0977,0.0415,0.0024,0.0195
0.0049,0.0024,0.0024,0.0024,0.0024,0.0024,0.083,0.0415,0.0024,0.0073
0.0049,0.0024,0.0024,0.0024,0.0024,0.0024,0.0757,0.1929,0.0024,0.022
0.0024,0.0024,0.0024,0.0024,0.0024,0.0024,0.0928,0.1196,0.0024,0.0171
0.0024,0.0024,0.0024,0.0024,0.0024,0.0024,0.083,0.1245,0.0024,0.0146
0.0024,0.0024,0.0049,0.0024,0.0024,0.0024,0.0708,0.1147,0.0024,0.0122
0.0024,0.0024,0.0024,0.0024,0.0024,0.0024,0.0806,0.0586,0.0024,0.0195
0.0098,0.0024,0.0024,0.0024,0.0024,0.0024,0.1196,0.0806,0.0024,0.0171
0.0024,0.0024,0.0024,0.0024,0.0024,0.0024,0.0684,0.0562,0.0098,0.0146
0.0024,0.0024,0.0024,0.0024,0.0024,0.0024,0.105,0.0293,0.0024,0.0024
0.0024,0.0024,0.0024,0.0024,0.0024,0.0024,0.0635,0.0269,0.0024,0.0073
0.0024,0.0024,0.0024,0.0024,0.0024,0.0024,0.0293,0.0488,0.0024,0.0049
0.0049,0.0024,0.0024,0.0024,0.0024,0.0024,0.0586,0.061,0.0024,0.0024
0.0024,0.0024,0.0024,0.0024,0.0024,0.0024,0.0513,0.0537,0.0024,0.0122
0.0122,0.0024,0.0024,0.0024,0.0024,0.0024,0.0439,0.0488,0.0024,0.0049
0.0024,0.0024,0.0024,0.0024,0.0024,0.0024,0.0317,0.0415,0.0024,0.0024
0.0098,0.0024,0.0024,0.0024,0.0024,0.0024,0.0537,0.1172,0.0024,0.0098
0.0024,0.0024,0.0024,0.0024,0.0024,0.0024,0.0928,0.127,0.0098,0.022
0.0024,0.0024,0.0024,0.0024,0.0024,0.0024,0.0879,0.0854,0.0024,0.0122
0.0024,0.0024,0.0024,0.0024,0.0024,0.0024,0.0562,0.0928,0.0073,0.0024
0.0049,0.0024,0.0024,0.0024,0.0024,0.0024,0.0781,0.0366,0.0073,0.0024
0.0024,0.0024,0.0024,0.0049,0.0024,0.0024,0.0586,0.0415,0.0024,0.0024
0.0024,0.0024,0.0024,0.0024,0.0024,0.0024,0.0562,0.0415,0.0024,0.0049
0.0024,0.0024,0.0024,0.0024,0.0024,0.0024,0.0781,0.0513,0.0024,0.0122
0.0024,0.0024,0.0024,0.0024,0.0024,0.0024,0.0171,0.0439,0.0024,0.0122
0.0024,0.0024,0.0049,0.0024,0.0024,0.0024,0.0317,0.0464,0.0024,0.0073
0.0024,0.0024,0.0024,0.0024,0.0024,0.0024,0.0415,0.0342,0.0024,0.0098
0.0024,0.0024,0.0024,0.0024,0.0024,0.0024,0.0293,0.0464,0.0024,0.0146
0.0073,0.0024,0.0024,0.0024,0.0024,0.0024,0.0562,0.0586,0.0024,0.0073
0.0024,0.0024,0.0024,0.0024,0.0024,0.0024,0.0464,0.0635,0.0024,0.0073
0.0049,0.0024,0.0024,0.0024,0.0024,0.0024,0.0586,0.0537,0.0024,0.0073
0.0049,0.0024,0.0024,0.0024,0.0024,0.0024,0.0464,0.0488,0.0024,0.0049
0.0024,0.0024,0.0024,0.0024,0.0049,0.0024,0.0244,0.0537,0.0024,0.0049
0.0024,0.0024,0.0024,0.0024,0.0024,0.0024,0.0488,0.0684,0.0024,0.0171
0.0024,0.0024,0.0024,0.0024,0.0024,0.0024,0.0415,0.0659,0.0024,0.0195
0.0024,0.0024,0.0024,0.0024,0.0024,0.0024,0.061,0.0684,0.0024,0.0269
0.0024,0.0024,0.0024,0.0024,0.0024,0.0024,0.0293,0.0366,0.0024,0.0122
0.0073,0.0024,0.0024,0.0024,0.0024,0.0024,0.0366,0.0366,0.0024,0.0244
0.0049,0.0024,0.0024,0.0024,0.0024,0.0024,0.0464,0.061,0.0024,0.0049
0.0024,0.0024,0.0024,0.0024,0.0024,0.0024,0.0171,0.0366,0.0024,0.0073
0.0073,0.0024,0.0024,0.0024,0.0024,0.0024,0.0122,0.0562,0.0024,0.0024
0.0073,0.0024,0.0024,0.0024,0.0024,0.0024,0.022,0.0562,0.0024,0.0171
0.0024,0.0024,0.0024,0.0024,0.0024,0.0024,0.0806,0.0439,0.0024,0.0098
0.0024,0.0024,0.0024,0.0024,0.0024,0.0024,0.0244,0.0317,0.0024,0.0073
0.0073,0.0024,0.0024,0.0024,0.0024,0.0024,0.0049,0.0293,0.0024,0.0049
0.0391,0.0024,0.0049,0.0024,0.0024,0.0024,0.0244,0.0586,0.0024,0.0098
0.0146,0.0024,0.0024,0.0024,0.0024,0.0024,0.0244,0.0415,0.0024,0.0122
0.0317,0.0024,0.0024,0.0024,0.0024,0.0024,0.0269,0.0537,0.0024,0.0171
0.0415,0.0024,0.0024,0.0024,0.0024,0.0024,0.022,0.061,0.0024,0.0146
0.022,0.0024,0.0024,0.0024,0.0024,0.0024,0.0269,0.061,0.0024,0.0122
0.0122,0.0024,0.0049,0.0024,0.0024,0.0024,0.0024,0.0537,0.0024,0.0024
0.0049,0.0024,0.0024,0.0024,0.0024,0.0024,0.0146,0.0366,0.0024,0.0024
0.0122,0.0024,0.0024,0.0024,0.0024,0.0024,0.0122,0.0464,0.0024,0.0024
0.0171,0.0024,0.0024,0.0024,0.0024,0.0024,0.0024,0.0537,0.0024,0.0024
0.0049,0.0024,0.0073,0.0024,0.0024,0.0024,0.0073,0.0757,0.0024,0.0024
0.1489,0.0024,0.0024,0.0024,0.0024,0.0024,0.0171,0.1587,0.0024,0.0024
0.1465,0.0024,0.0024,0.0024,0.0024,0.0024,0.0146,0.1831,0.0024,0.0024
0.0977,0.0024,0.0024,0.0024,0.0024,0.0024,0.0586,0.188,0.0024,0.0024
0.0854,0.0024,0.0024,0.0024,0.0024,0.0024,0.0757,0.1196,0.0024,0.0073
0.127,0.0024,0.0024,0.0024,0.0024,0.0024,0.0757,0.1294,0.0024,0.0024
0.061,0.0024,0.0024,0.0024,0.0024,0.0024,0.0684,0.0952,0.0024,0.0024
0.0171,0.0024,0.0024,0.0024,0.0024,0.0024,0.0049,0.1343,0.0024,0.0122
0.0195,0.0024,0.0024,0.0024,0.0024,0.0024,0.0293,0.0806,0.0024,0.0024
0.0049,0.0024,0.0024,0.0024,0.0024,0.0024,0.0146,0.0391,0.0024,0.0073
0.0024,0.0024,0.0024,0.0024,0.0024,0.0024,0.0073,0.0366,0.0024,0.0171
0.0171,0.0024,0.0024,0.0049,0.0024,0.0024,0.0195,0.0293,0.0024,0.0024
0.0073,0.0024,0.0024,0.0024,0.0024,0.0024,0.0073,0.0342,0.0024,0.0122
0.0024,0.0024,0.0024,0.0024,0.0024,0.0024,0.0513,0.0293,0.0024,0.0171
0.0049,0.0024,0.0024,0.0024,0.0024,0.0024,0.0391,0.0439,0.0024,0.0098
0.0024,0.0024,0.0049,0.0024,0.0024,0.0024,0.0317,0.0464,0.0024,0.0122
0.0024,0.0024,0.0024,0.0024,0.0024,0.0024,0.022,0.0513,0.0073,0.0195
0.0024,0.0024,0.0024,0.0024,0.0024,0.0024,0.0317,0.0269,0.0024,0.0098
0.0024,0.0024,0.0024,0.0024,0.0024,0.0024,0.0708,0.0586,0.0024,0.0024
0.0024,0.0024,0.0024,0.0024,0.0024,0.0024,0.0586,0.0488,0.0024,0.0073
0.0024,0.0024,0.0024,0.0024,0.0024,0.0024,0.0562,0.0464,0.0073,0.0098
0.0024,0.0024,0.0024,0.0024,0.0024,0.0024,0.0586,0.0732,0.0024,0.0244
0.0024,0.0024,0.0049,0.0024,0.0024,0.0024,0.0854,0.0513,0.0024,0.0171
0.0098,0.0024,0.0024,0.0024,0.0024,0.0024,0.0366,0.0708,0.0024,0.0122
0.0024,0.0024,0.0024,0.0024,0.0024,0.0024,0.0684,0.0562,0.0024,0.0269
0.0024,0.0024,0.0024,0.0024,0.0024,0.0024,0.0586,0.0513,0.0024,0.022
0.0024,0.0024,0.0024,0.0024,0.0024,0.0024,0.0366,0.0366,0.0024,0.0146
0.0024,0.0024,0.0024,0.0024,0.0024,0.0024,0.0513,0.0635,0.0024,0.022
0.0024,0.0024,0.0024,0.0024,0.0024,0.0024,0.0488,0.0537,0.0024,0.0244
0.0049,0.0024,0.0024,0.0024,0.0024,0.0024,0.0586,0.061,0.0024,0.0269
0.0024,0.0024,0.0024,0.0024,0.0024,0.0024,0.0488,0.0586,0.0024,0.0366
0.0024,0.0024,0.0024,0.0024,0.0024,0.0024,0.0293,0.0586,0.0024,0.0391
0.0024,0.0024,0.0024,0.0024,0.0024,0.0024,0.0366,0.0537,0.0024,0.0317
0.0024,0.0024,0.0024,0.0024,0.0024,0.0024,0.0684,0.0366,0.0024,0.0317
0.0049,0.0024,0.0024,0.0024,0.0024,0.0024,0.0659,0.0586,0.0024,0.022
0.0244,0.0024,0.0024,0.0024,0.0024,0.0024,0.0562,0.0732,0.0024,0.0171
0.0024,0.0024,0.0024,0.0024,0.0024,0.0024,0.0513,0.0464,0.0024,0.0146
0.0024,0.0024,0.0024,0.0024,0.0024,0.0024,0.0488,0.0439,0.0024,0.022
0.0049,0.0024,0.0024,0.0024,0.0024,0.0024,0.0586,0.0464,0.0024,0.0098
0.0024,0.0024,0.0024,0.0024,0.0024,0.0024,0.0513,0.0513,0.0024,0.0122
0.0122,0.0024,0.0024,0.0024,0.0024,0.0024,0.0488,0.0439,0.0024,0.0171
0.0024,0.0024,0.0024,0.0024,0.0024,0.0024,0.0928,0.0293,0.0024,0.0366
0.0024,0.0024,0.0024,0.0024,0.0024,0.0024,0.0757,0.0415,0.0049,0.0415
0.0049,0.0024,0.0024,0.0024,0.0024,0.0024,0.0928,0.0537,0.0049,0.0195
0.0073,0.0024,0.0024,0.0024,0.0024,0.0024,0.1001,0.0464,0.0024,0.022
0.0024,0.0024,0.0024,0.0024,0.0024,0.0024,0.0659,0.0635,0.0024,0.0269
0.0024,0.0024,0.0024,0.0024,0.0024,0.0024,0.0439,0.0415,0.0024,0.0488
0.0024,0.0024,0.0024,0.0024,0.0024,0.0024,0.0391,0.0439,0.0024,0.0024
0.0024,0.0024,0.0024,0.0024,0.0024,0.0024,0.0464,0.0439,0.0073,0.0024
0.0024,0.0024,0.0024,0.0024,0.0024,0.0024,0.0562,0.0562,0.0024,0.0171
0.0073,0.0024,0.0024,0.0024,0.0024,0.0024,0.061,0.0488,0.0024,0.0317
0.0098,0.0024,0.0024,0.0024,0.0024,0.0024,0.0439,0.061,0.0024,0.0293
0.0024,0.0024,0.0024,0.0024,0.0024,0.0024,0.0244,0.0513,0.0024,0.0366
0.0024,0.0024,0.0024,0.0024,0.0024,0.0024,0.0391,0.0537,0.0024,0.0171
0.0024,0.0024,0.0024,0.0024,0.0024,0.0024,0.0684,0.061,0.0024,0.0098
0.0073,0.0024,0.0024,0.0024,0.0024,0.0024,0.0732,0.0439,0.0024,0.0195
0.0024,0.0024,0.0024,0.0024,0.0024,0.0024,0.0708,0.0562,0.0024,0.0146
0.0024,0.0024,0.0024,0.0024,0.0024,0.0024,0.0439,0.0391,0.0024,0.0122
0.0024,0.0024,0.0024,0.0024,0.0024,0.0024,0.0586,0.0708,0.0024,0.0293
0.0073,0.0024,0.0024,0.0024,0.0049,0.0024,0.0391,0.0757,0.0024,0.0049
0.0024,0.0024,0.0024,0.0024,0.0024,0.0024,0.0391,0.0659,0.0024,0.0098
0.0073,0.0024,0.0024,0.0024,0.0024,0.0024,0.0195,0.0537,0.0024,0.0073
0.0122,0.0024,0.0024,0.0024,0.0024,0.0024,0.0439,0.0513,0.0024,0.0171
0.0073,0.0024,0.0024,0.0024,0.0024,0.0024,0.0195,0.0537,0.0024,0.0195
0.0024,0.0024,0.0024,0.0024,0.0024,0.0024,0.0146,0.0684,0.0024,0.0122
0.0024,0.0024,0.0024,0.0024,0.0024,0.0024,0.0049,0.0757,0.0024,0.0098
0.0098,0.0024,0.0024,0.0024,0.0024,0.0024,0.0342,0.083,0.0024,0.0195
0.0024,0.0024,0.0024,0.0024,0.0024,0.0024,0.0464,0.083,0.0098,0.0195
0.0024,0.0024,0.0024,0.0024,0.0024,0.0024,0.0439,0.0439,0.0024,0.022
0.0024,0.0024,0.0024,0.0024,0.0024,0.0024,0.0293,0.061,0.0024,0.0195
0.0024,0.0024,0.0024,0.0024,0.0024,0.0024,0.0293,0.061,0.0024,0.0171
0.0024,0.0024,0.0024,0.0024,0.0024,0.0024,0.0342,0.083,0.0024,0.0195
0.0024,0.0024,0.0024,0.0024,0.0024,0.0024,0.0488,0.0732,0.0024,0.022
0.0049,0.0024,0.0024,0.0024,0.0024,0.0024,0.0146,0.0659,0.0024,0.0269
0.0049,0.0024,0.0024,0.0024,0.0024,0.0024,0.0073,0.0586,0.0024,0.0098
0.0098,0.0024,0.0024,0.0024,0.0024,0.0024,0.0098,0.0708,0.0024,0.0195
0.0073,0.0024,0.0024,0.0024,0.0024,0.0024,0.0049,0.0635,0.0024,0.0049
0.0049,0.0024,0.0024,0.0024,0.0024,0.0024,0.0098,0.0635,0.0024,0.0146
0.0073,0.0024,0.0024,0.0024,0.0024,0.0024,0.0244,0.0708,0.0024,0.0122
0.0024,0.0024,0.0024,0.0024,0.0024,0.0024,0.0171,0.0806,0.0024,0.0098
0.0049,0.0024,0.0024,0.0024,0.0024,0.0024,0.0073,0.0439,0.0024,0.0293
0.0146,0.0024,0.0024,0.0024,0.0024,0.0024,0.0098,0.0586,0.0024,0.0195
0.0049,0.0024,0.0024,0.0024,0.0049,0.0024,0.0049,0.0635,0.0024,0.0049
0.0024,0.0024,0.0024,0.0024,0.0024,0.0024,0.0049,0.0708,0.0024,0.0269
0.0049,0.0024,0.0024,0.0024,0.0049,0.0024,0.0024,0.0464,0.0024,0.0171
0.0049,0.0024,0.0024,0.0024,0.0024,0.0024,0.0024,0.0366,0.0024,0.022
0.0049,0.0024,0.0024,0.0024,0.0024,0.0024,0.0049,0.0488,0.0024,0.0098
0.0171,0.0024,0.0024,0.0024,0.0024,0.0024,0.0513,0.105,0.0024,0.0439
0.0049,0.0024,0.0024,0.0024,0.0024,0.0024,0.0342,0.1196,0.0024,0.0513
0.0024,0.0024,0.0024,0.0024,0.0024,0.0024,0.0293,0.0708,0.0024,0.0488
0.0098,0.0024,0.0024,0.0024,0.0024,0.0024,0.0269,0.1074,0.0024,0.0562
0.0122,0.0024,0.0024,0.0024,0.0024,0.0024,0.022,0.1147,0.0024,0.0562
0.0122,0.0024,0.0024,0.0024,0.0024,0.0024,0.0098,0.1392,0.0024,0.0366
0.0098,0.0024,0.0024,0.0024,0.0024,0.0024,0.0122,0.1392,0.0024,0.0562
0.0195,0.0024,0.0024,0.0024,0.0024,0.0024,0.0122,0.1245,0.0024,0.0562
0.022,0.0024,0.0024,0.0024,0.0024,0.0024,0.0049,0.1147,0.0024,0.0513
0.0049,0.0024,0.0024,0.0024,0.0024,0.0024,0.0171,0.083,0.0024,0.0464
0.0024,0.0024,0.0024,0.0024,0.0024,0.0024,0.0122,0.1001,0.0024,0.0562
0.0024,0.0024,0.0024,0.0024,0.0024,0.0024,0.0195,0.1221,0.0024,0.0659
0.0024,0.0024,0.0024,0.0024,0.0024,0.0024,0.0391,0.0928,0.0024,0.0513
0.0098,0.0024,0.0024,0.0024,0.0049,0.0024,0.0073,0.1221,0.0024,0.0366
0.0049,0.0024,0.0024,0.0024,0.0024,0.0024,0.0073,0.1196,0.0024,0.0269
0.0122,0.0024,0.0049,0.0024,0.0024,0.0024,0.0049,0.105,0.0024,0.0513
0.0024,0.0024,0.0024,0.0024,0.0024,0.0024,0.0098,0.105,0.0024,0.0464
0.0049,0.0024,0.0024,0.0024,0.0024,0.0024,0.0171,0.127,0.0024,0.0537
0.0024,0.0024,0.0024,0.0024,0.0024,0.0024,0.0098,0.1172,0.0024,0.0537
0.0024,0.0024,0.0024,0.0024,0.0024,0.0024,0.0073,0.127,0.0024,0.0439
0.0439,0.0024,0.0024,0.0024,0.0049,0.0024,0.0244,0.1294,0.0024,0.0708
0.0195,0.0024,0.0024,0.0024,0.0024,0.0024,0.0171,0.1001,0.0024,0.0586
0.0366,0.0024,0.0024,0.0024,0.0024,0.0024,0.0171,0.1367,0.0024,0.0562
0.0366,0.0024,0.0024,0.0024,0.0049,0.0024,0.0122,0.166,0.0024,0.0537
0.0293,0.0024,0.0024,0.0024,0.0024,0.0024,0.0171,0.1563,0.0024,0.0586
0.0513,0.0024,0.0024,0.0024,0.0024,0.0024,0.0024,0.1538,0.0024,0.061
0.0342,0.0024,0.0024,0.0024,0.0049,0.0024,0.0049,0.1221,0.0024,0.0513
0.0391,0.0024,0.0024,0.0024,0.0024,0.0024,0.0073,0.1318,0.0024,0.0562
0.0195,0.0024,0.0024,0.0024,0.0024,0.0024,0.0049,0.1514,0.0024,0.0439
0.0439,0.0024,0.0024,0.0024,0.0049,0.0024,0.0122,0.1465,0.0024,0.0562
0.1001,0.0024,0.0024,0.0024,0.0024,0.0024,0.0073,0.1123,0.0024,0.0439
0.0317,0.0024,0.0024,0.0024,0.0024,0.0024,0.022,0.1514,0.0024,0.0391
0.0562,0.0024,0.0024,0.0024,0.0024,0.0024,0.0171,0.1489,0.0024,0.061
0.0488,0.0024,0.0024,0.0024,0.0024,0.0024,0.0122,0.144,0.0024,0.0488
0.0659,0.0024,0.0024,0.0024,0.0024,0.0024,0.0317,0.1245,0.0024,0.0488
0.0513,0.0024,0.0024,0.0024,0.0024,0.0024,0.0293,0.1514,0.0024,0.0464
0.0537,0.0024,0.0024,0.0024,0.0024,0.0024,0.0098,0.1294,0.0024,0.0488
0.0317,0.0024,0.0024,0.0024,0.0024,0.0024,0.0171,0.1343,0.0024,0.0562
0.0684,0.0024,0.0024,0.0024,0.0024,0.0024,0.0195,0.1733,0.0024,0.0562
0.0293,0.0024,0.0024,0.0024,0.0024,0.0024,0.0146,0.1196,0.0024,0.0659
0.0391,0.0024,0.0024,0.0024,0.0024,0.0024,0.0024,0.1294,0.0024,0.0342
0.0171,0.0024,0.0024,0.0024,0.0024,0.0024,0.0098,0.1538,0.0024,0.0513
0.0391,0.0024,0.0024,0.0024,0.0024,0.0024,0.0171,0.1367,0.0024,0.0464
0.0293,0.0024,0.0024,0.0024,0.0024,0.0024,0.0024,0.1343,0.0024,0.0293
0.0293,0.0024,0.0024,0.0024,0.0024,0.0024,0.0244,0.0977,0.0024,0.0537
0.0171,0.0024,0.0024,0.0024,0.0024,0.0024,0.0195,0.1147,0.0024,0.0562
0.0708,0.0024,0.0049,0.0024,0.0024,0.0024,0.0195,0.1001,0.0024,0.0488
0.0684,0.0024,0.0024,0.0024,0.0024,0.0024,0.0171,0.0928,0.0024,0.0464
0.0684,0.0024,0.0024,0.0024,0.0024,0.0024,0.0195,0.1416,0.0024,0.061
0.0684,0.0024,0.0024,0.0024,0.0024,0.0024,0.0122,0.1636,0.0024,0.0464
0.0195,0.0024,0.0024,0.0024,0.0024,0.0024,0.022,0.1221,0.0024,0.0464
0.0171,0.0024,0.0049,0.0024,0.0024,0.0024,0.0195,0.1196,0.0024,0.0537
0.0146,0.0024,0.0024,0.0024,0.0024,0.0024,0.0269,0.1416,0.0024,0.0513
0.0269,0.0024,0.0024,0.0024,0.0024,0.0024,0.0171,0.0952,0.0024,0.0684
0.0269,0.0024,0.0024,0.0024,0.0024,0.0024,0.0366,0.1392,0.0024,0.0586
0.0513,0.0024,0.0024,0.0024,0.0024,0.0024,0.0366,0.1758,0.0024,0.0586
0.0586,0.0024,0.0024,0.0024,0.0024,0.0024,0.022,0.1563,0.0024,0.0513
0.0342,0.0024,0.0024,0.0024,0.0024,0.0024,0.0195,0.105,0.0024,0.0488
0.0269,0.0024,0.0024,0.0024,0.0024,0.0024,0.0171,0.1025,0.0024,0.0415
0.0024,0.0024,0.0024,0.0024,0.0024,0.0024,0.0098,0.1099,0.0024,0.0415
0.0391,0.0024,0.0024,0.0024,0.0049,0.0024,0.0342,0.1709,0.0024,0.0488
0.144,0.0024,0.0513,0.0024,0.0024,0.0024,0.0073,0.1318,0.0024,0.0537
0.0146,0.0024,0.0024,0.0024,0.0024,0.0024,0.0024,0.0586,0.0024,0.0342
0.0391,0.0024,0.0024,0.0024,0.0024,0.0024,0.0488,0.1025,0.0024,0.0464
0.0171,0.0024,0.0024,0.0024,0.0024,0.0024,0.0195,0.083,0.0024,0.0415
0.0024,0.0024,0.0024,0.0024,0.0024,0.0024,0.0049,0.1001,0.0024,0.0488
0.0415,0.0024,0.0024,0.0024,0.0024,0.0024,0.0073,0.0903,0.0024,0.0488
0.0146,0.0024,0.0024,0.0024,0.0024,0.0024,0.0171,0.1367,0.0024,0.0488
0.0024,0.0024,0.0024,0.0024,0.0024,0.0024,0.0073,0.0952,0.0024,0.0439
0.0024,0.0024,0.0024,0.0024,0.0024,0.0024,0.0244,0.127,0.0024,0.0562
0.0024,0.0024,0.0024,0.0024,0.0024,0.0024,0.0146,0.1123,0.0024,0.0537
0.0049,0.0024,0.0024,0.0024,0.0024,0.0024,0.0391,0.1318,0.0024,0.061
0.0024,0.0024,0.0024,0.0024,0.0024,0.0024,0.0244,0.1001,0.0024,0.0562
0.0024,0.0024,0.0024,0.0049,0.0024,0.0024,0.0122,0.0806,0.0024,0.0537
0.0024,0.0024,0.0024,0.0024,0.0024,0.0024,0.0366,0.1489,0.0024,0.0586
0.0415,0.0024,0.0024,0.0024,0.0024,0.0024,0.0439,0.127,0.0024,0.0391
0.2783,0.0024,0.0098,0.0024,0.0024,0.0024,0.0073,0.2148,0.0024,0.105
0.1001,0.0024,0.0049,0.0024,0.0024,0.0024,0.0464,0.1367,0.0024,0.0635
0.1221,0.0024,0.0024,0.0024,0.0024,0.0024,0.0269,0.105,0.0024,0.0659
0.1123,0.0024,0.0024,0.0024,0.0024,0.0024,0.0366,0.1123,0.0024,0.0635
0.0659,0.0024,0.0024,0.0024,0.0024,0.0024,0.022,0.1147,0.0024,0.0562
0.0586,0.0024,0.0024,0.0024,0.0024,0.0024,0.022,0.105,0.0024,0.0464
0.0464,0.0024,0.0024,0.0024,0.0024,0.0024,0.0146,0.1099,0.0024,0.0635
0.0269,0.0024,0.0024,0.0024,0.0024,0.0024,0.022,0.1123,0.0024,0.0464
0.0024,0.0024,0.0024,0.0024,0.0024,0.0024,0.0073,0.1074,0.0024,0.0488
0.0049,0.0024,0.0024,0.0024,0.0024,0.0024,0.0073,0.0854,0.0024,0.0586
0.0317,0.0024,0.0024,0.0024,0.0024,0.0024,0.0513,0.1147,0.0024,0.0708
0.0024,0.0024,0.0024,0.0024,0.0024,0.0024,0.0098,0.1001,0.0024,0.0537
0.0171,0.0024,0.0024,0.0024,0.0024,0.0024,0.0122,0.1245,0.0024,0.0513
0.0195,0.0024,0.0024,0.0024,0.0024,0.0024,0.0049,0.0879,0.0024,0.0391
0.0171,0.0024,0.0024,0.0024,0.0024,0.0024,0.0098,0.0952,0.0024,0.0391
0.0073,0.0024,0.0024,0.0024,0.0024,0.0024,0.022,0.1367,0.0024,0.0439
0.0049,0.0024,0.0024,0.0049,0.0024,0.0024,0.0146,0.1221,0.0024,0.0562
0.0244,0.0024,0.0024,0.0024,0.0024,0.0024,0.0171,0.1245,0.0024,0.0415
0.0146,0.0024,0.0024,0.0024,0.0024,0.0024,0.0073,0.1172,0.0024,0.0562
0.0146,0.0024,0.0024,0.0024,0.0024,0.0024,0.0244,0.1221,0.0024,0.0513
0.0098,0.0024,0.0024,0.0024,0.0024,0.0024,0.0122,0.1245,0.0024,0.0586
0.0854,0.0024,0.0073,0.0024,0.0024,0.0024,0.022,0.1514,0.0024,0.1123
0.0269,0.0024,0.0024,0.0024,0.0024,0.0024,0.0195,0.1025,0.0024,0.0439
0.0195,0.0024,0.0024,0.0024,0.0024,0.0024,0.0269,0.1221,0.0024,0.0537
0.0366,0.0024,0.0024,0.0024,0.0024,0.0024,0.0366,0.1538,0.0024,0.0464
0.0269,0.0024,0.0024,0.0024,0.0024,0.0024,0.0098,0.1221,0.0024,0.0391
0.0195,0.0024,0.0024,0.0024,0.0024,0.0024,0.0073,0.1416,0.0024,0.0464
0.022,0.0024,0.0024,0.0024,0.0024,0.0024,0.0659,0.1904,0.0024,0.0513
0.0024,0.0024,0.0024,0.0024,0.0024,0.0024,0.0049,0.1025,0.0024,0.0439
0.0195,0.0024,0.0024,0.0024,0.0024,0.0024,0.0024,0.1196,0.0024,0.0537
0.022,0.0024,0.0024,0.0024,0.0049,0.0024,0.0024,0.1245,0.0024,0.0488
0.0269,0.0024,0.0024,0.0024,0.0024,0.0024,0.0293,0.1392,0.0024,0.0464
0.0073,0.0024,0.0024,0.0024,0.0024,0.0024,0.0049,0.1196,0.0024,0.0317
0.0049,0.0024,0.0024,0.0024,0.0024,0.0024,0.0024,0.1025,0.0024,0.0513
0.0098,0.0024,0.0024,0.0024,0.0024,0.0024,0.0122,0.1099,0.0024,0.0366
0.0073,0.0024,0.0024,0.0024,0.0024,0.0024,0.0122,0.0903,0.0024,0.0415
0.0171,0.0024,0.0024,0.0024,0.0024,0.0024,0.0195,0.1123,0.0024,0.0391
0.0049,0.0024,0.0024,0.0024,0.0024,0.0024,0.0024,0.1025,0.0024,0.0391
0.0073,0.0024,0.0024,0.0024,0.0024,0.0024,0.0049,0.1221,0.0024,0.0366
0.0098,0.0024,0.0049,0.0024,0.0024,0.0024,0.0171,0.1147,0.0024,0.0391
0.0146,0.0024,0.0024,0.0024,0.0024,0.0024,0.0073,0.1294,0.0024,0.0293
0.0146,0.0024,0.0024,0.0024,0.0024,0.0024,0.0049,0.1123,0.0024,0.0391
0.0073,0.0024,0.0024,0.0024,0.0024,0.0024,0.0171,0.1196,0.0024,0.0464
0.0073,0.0024,0.0024,0.0024,0.0024,0.0024,0.0073,0.0952,0.0024,0.0488
0.0146,0.0024,0.0024,0.0024,0.0024,0.0024,0.0024,0.1245,0.0024,0.0366
0.0269,0.0806,0.0684,0.0024,0.0854,0.0146,0.0439,0.1465,0.0586,0.0488
0.0122,0.0024,0.0049,0.0024,0.0586,0.0049,0.0122,0.1611,0.0024,0.0391
0.0537,0.0024,0.0024,0.0024,0.0269,0.0024,0.0269,0.1001,0.0024,0.0415
0.022,0.0024,0.0024,0.0024,0.0024,0.0024,0.0146,0.1099,0.0024,0.0293
0.0244,0.0024,0.0024,0.0024,0.0024,0.0024,0.0195,0.127,0.0024,0.0342
0.0293,0.0024,0.0024,0.0024,0.0098,0.0024,0.0244,0.1172,0.0024,0.0415
0.0366,0.0024,0.0024,0.0024,0.0073,0.0024,0.0073,0.1343,0.0024,0.0342
0.022,0.0024,0.0024,0.0024,0.0024,0.0024,0.0024,0.1074,0.0024,0.0391
0.0073,0.0024,0.0024,0.0024,0.0049,0.0024,0.0024,0.0903,0.0024,0.0439
0.0073,0.0024,0.0024,0.0024,0.0024,0.0024,0.0024,0.0952,0.0024,0.0366
0.0244,0.0024,0.0049,0.0024,0.0024,0.0024,0.0024,0.1123,0.0024,0.0293
0.0122,0.0024,0.0024,0.0024,0.0024,0.0024,0.0024,0.083,0.0024,0.0464
0.0122,0.0024,0.0024,0.0024,0.0024,0.0024,0.0342,0.1563,0.0024,0.0269
0.022,0.0024,0.0024,0.0024,0.0024,0.0024,0.0244,0.1147,0.0024,0.0293
0.0928,0.0024,0.0024,0.0024,0.0024,0.0024,0.0122,0.1074,0.0024,0.0293
0.0781,0.0024,0.0024,0.0024,0.0024,0.0024,0.0171,0.1099,0.0024,0.0415
0.0586,0.0024,0.0024,0.0024,0.0024,0.0024,0.0146,0.1807,0.0024,0.0342
0.0854,0.0024,0.0854,0.0024,0.0024,0.0024,0.0024,0.1953,0.0024,0.0317
0.0293,0.0024,0.0024,0.0024,0.0024,0.0024,0.0024,0.0977,0.0024,0.0366
0.3198,0.0073,0.0293,0.0024,0.0024,0.0024,0.0024,0.2612,0.0024,0.0439
0.1904,0.0024,0.0024,0.0024,0.0024,0.0024,0.0146,0.1685,0.0024,0.0317
0.1538,0.0024,0.0781,0.0024,0.0024,0.0024,0.0024,0.1733,0.0024,0.0293
0.083,0.0024,0.0024,0.0024,0.0024,0.0024,0.0024,0.1343,0.0024,0.0366
0.1636,0.0024,0.0562,0.0024,0.0024,0.0024,0.0513,0.2954,0.0146,0.0366
0.1245,0.0024,0.0024,0.0024,0.0024,0.0024,0.0464,0.2588,0.0024,0.0391
0.1025,0.0024,0.0024,0.0024,0.0024,0.0024,0.3589,0.5347,0.0024,0.0366
0.0146,0.0024,0.0024,0.0024,0.0024,0.0024,0.0464,0.2124,0.0024,0.0269
0.166,0.0024,0.0024,0.0024,0.0024,0.0024,0.0684,0.2417,0.0024,0.0244
0.1147,0.0024,0.0024,0.0024,0.0024,0.0024,0.0317,0.1904,0.0024,0.3296
0.2563,0.0024,0.0024,0.0024,0.2319,0.0024,0.0317,0.2368,0.0024,0.0464
0.3491,0.0024,0.0024,0.0024,0.1025,0.0024,0.0659,0.2246,0.0024,0.6982
0.0757,0.0024,0.0024,0.0024,0.0024,0.1318,0.4102,0.1855,0.0024,0.2393
0.0195,0.0024,0.0024,0.0024,0.0024,0.0024,0.022,0.0928,0.0024,0.0513
0.0586,0.0024,0.0024,0.0024,0.0024,0.0024,0.0146,0.1001,0.0024,0.0513
0.0171,0.0024,0.0024,0.0024,0.0024,0.0024,0.0342,0.0684,0.0024,0.0293
0.0464,0.0024,0.0024,0.0024,0.0024,0.0024,0.0391,0.105,0.0024,0.0439
0.0854,0.0024,0.1294,0.0024,0.0024,0.0024,0.0635,0.2173,0.0122,0.0366
0.144,0.0024,0.0488,0.0024,0.0049,0.0024,0.0464,0.1807,0.0366,0.0391
0.1074,0.0024,0.0708,0.0024,0.0024,0.0024,0.0562,0.188,0.0415,0.061
0.21,0.0024,0.0024,0.0024,0.0024,0.0024,0.0757,0.1855,0.0439,0.0488
0.2637,0.0024,0.105,0.0024,0.0024,0.0024,0.0439,0.2466,0.0391,0.0415
0.0342,0.0024,0.0195,0.0024,0.0049,0.0024,0.022,0.188,0.0024,0.0488
0.1074,0.0024,0.0024,0.0024,0.0024,0.0024,0.0244,0.1733,0.0024,0.0488
0.0415,0.0024,0.0024,0.0024,0.0024,0.0024,0.0537,0.1392,0.0024,0.0488
0.022,0.0024,0.2075,0.0024,0.0024,0.0024,0.0659,0.1685,0.0537,0.0562
0.0342,0.0024,0.022,0.0024,0.0024,0.0024,0.0854,0.2295,0.0024,0.0439
0.0269,0.0024,0.0024,0.0024,0.0024,0.0024,0.0562,0.1831,0.0049,0.0391
0.0415,0.0024,0.0488,0.0024,0.0024,0.0024,0.0537,0.1563,0.0024,0.0488
0.0806,0.1367,0.127,0.0024,0.0024,0.0024,0.1587,0.2271,0.1196,0.0317
0.0928,0.2783,0.1587,0.0024,0.0024,0.0024,0.144,0.2124,0.1514,0.0342
0.0684,0.2002,0.1416,0.0024,0.0024,0.0024,0.0952,0.2222,0.166,0.0366
0.0195,0.0024,0.0024,0.0024,0.0024,0.0024,0.0244,0.1807,0.0024,0.0269
0.0244,0.0024,0.0195,0.0024,0.0024,0.0024,0.0464,0.1831,0.0024,0.0244
0.1196,0.0024,0.2002,0.0024,0.0024,0.0024,0.0757,0.271,0.0562,0.0342
0.1929,0.0024,0.2832,0.0024,0.0024,0.0024,0.0659,0.2319,0.1294,0.0415
0.1294,0.0024,0.1489,0.0024,0.0024,0.0024,0.0562,0.1929,0.0586,0.0415
0.0757,0.0024,0.0024,0.0024,0.0024,0.0049,0.1807,0.166,0.0024,0.0537
0.0024,0.0024,0.0049,0.0024,0.0024,0.0024,0.061,0.1587,0.0024,0.0537
0.0073,0.0024,0.0024,0.0024,0.0024,0.0024,0.0879,0.1709,0.0024,0.1294
0.0122,0.0024,0.0024,0.0024,0.0024,0.0024,0.0854,0.1636,0.0024,0.127
0.0024,0.0024,0.0024,0.0024,0.0024,0.0024,0.022,0.144,0.0024,0.0513
0.0391,0.0024,0.0024,0.0024,0.0024,0.0024,0.1196,0.2393,0.0464,0.061
0.0049,0.0024,0.0024,0.0024,0.0024,0.0024,0.0562,0.1587,0.0024,0.061
0.0171,0.0024,0.0024,0.0024,0.0024,0.0024,0.0562,0.2344,0.0024,0.061
0.0195,0.0024,0.0024,0.0024,0.0049,0.0024,0.0562,0.1514,0.0024,0.0537
0.0146,0.0024,0.0024,0.0024,0.0024,0.0024,0.0464,0.1416,0.0024,0.0537
0.0024,0.0024,0.0024,0.0024,0.0024,0.0024,0.0952,0.1709,0.0024,0.0488
0.0024,0.0024,0.0024,0.0024,0.0024,0.0024,0.061,0.1758,0.0024,0.0488
0.0024,0.0024,0.0024,0.0024,0.0024,0.0024,0.1147,0.1587,0.0024,0.0415
0.0024,0.0024,0.0024,0.0024,0.0024,0.0024,0.0586,0.1392,0.0024,0.0659
0.0122,0.0024,0.0024,0.0024,0.0049,0.0024,0.0635,0.0952,0.0024,0.0415
0.0024,0.0024,0.0024,0.0024,0.0024,0.0024,0.0293,0.1172,0.0024,0.0537
0.0024,0.0024,0.0024,0.0024,0.0024,0.0024,0.0195,0.1025,0.0024,0.0342
0.0024,0.0024,0.0024,0.0024,0.0024,0.0024,0.0708,0.1221,0.0049,0.022
0.0049,0.0024,0.0024,0.0024,0.0024,0.0024,0.0317,0.0806,0.0024,0.0635
0.0024,0.0024,0.0024,0.0024,0.0024,0.0024,0.0317,0.1123,0.0024,0.0586
0.0024,0.0024,0.0024,0.0024,0.0024,0.0024,0.0244,0.0854,0.0024,0.0391
0.0024,0.0024,0.0024,0.0024,0.0024,0.0024,0.0024,0.0781,0.0024,0.0732
0.0024,0.0024,0.0024,0.0024,0.0024,0.0024,0.0146,0.0854,0.0024,0.0439
0.0024,0.0024,0.0024,0.0024,0.0024,0.0024,0.0073,0.0586,0.0024,0.0537
0.0024,0.0024,0.0049,0.0024,0.0024,0.0024,0.0049,0.061,0.0024,0.0659
0.0024,0.0024,0.0024,0.0024,0.0024,0.0024,0.0195,0.0879,0.0024,0.0464
0.0073,0.0024,0.0049,0.0024,0.0024,0.0024,0.0024,0.0708,0.0024,0.0439
0.0073,0.0024,0.0024,0.0024,0.0024,0.0024,0.0024,0.0708,0.0024,0.0586
0.0024,0.0024,0.0024,0.0024,0.0024,0.0024,0.022,0.0684,0.0024,0.0488
0.0024,0.0024,0.0049,0.0024,0.0049,0.0024,0.0024,0.0464,0.0024,0.0415
0.0024,0.0024,0.0024,0.0024,0.0024,0.0024,0.0049,0.0562,0.0024,0.0317
0.0024,0.0024,0.0024,0.0024,0.0024,0.0024,0.0049,0.061,0.0024,0.0464
0.0024,0.0024,0.0024,0.0024,0.0024,0.0024,0.0171,0.0635,0.0024,0.0415
0.0024,0.0024,0.0049,0.0024,0.0024,0.0024,0.0049,0.0391,0.0024,0.0464
0.0024,0.0024,0.0024,0.0024,0.0024,0.0024,0.0098,0.0366,0.0024,0.0488
0.0024,0.0024,0.0024,0.0024,0.0024,0.0024,0.0146,0.0659,0.0049,0.0391
0.0024,0.0024,0.0024,0.0024,0.0024,0.0024,0.0757,0.1367,0.0024,0.0391
0.0146,0.0024,0.0024,0.0024,0.0024,0.0024,0.0708,0.105,0.0024,0.0488
0.0073,0.0024,0.0024,0.0024,0.0024,0.0024,0.061,0.1221,0.0024,0.0464
0.0024,0.0024,0.0024,0.0024,0.0024,0.0024,0.0854,0.105,0.0024,0.0415
0.0024,0.0024,0.0024,0.0024,0.0024,0.0024,0.0854,0.1147,0.0024,0.0513
0.0073,0.0024,0.0024,0.0024,0.0024,0.0024,0.0244,0.083,0.0024,0.0439
0.0024,0.0024,0.0024,0.0024,0.0024,0.0024,0.0269,0.0879,0.0024,0.0366
0.0024,0.0024,0.0024,0.0024,0.0024,0.0024,0.0781,0.1367,0.0024,0.0488
0.0024,0.0024,0.0024,0.0024,0.0024,0.0024,0.0684,0.144,0.0024,0.0464
0.0244,0.0024,0.0024,0.0024,0.0024,0.0024,0.0171,0.1001,0.0024,0.0488
0.0684,0.0024,0.0024,0.0024,0.0024,0.0024,0.0659,0.2026,0.0024,0.0513
0.0024,0.0024,0.0024,0.0024,0.0024,0.0024,0.0293,0.1514,0.0024,0.0513
0.0024,0.0024,0.0024,0.0024,0.0024,0.0024,0.0659,0.105,0.0024,0.0488
0.0146,0.0024,0.0024,0.0098,0.0024,0.0024,0.0269,0.105,0.0024,0.0854
0.0024,0.0024,0.0049,0.0024,0.0024,0.0024,0.022,0.1392,0.0024,0.0562
0.0122,0.0024,0.0024,0.0024,0.0024,0.0024,0.0488,0.1489,0.0024,0.0439
0.0098,0.0024,0.0024,0.0024,0.0024,0.0024,0.0415,0.1392,0.0024,0.0391
0.0244,0.0024,0.0024,0.0024,0.0024,0.0024,0.0464,0.1489,0.0024,0.0513
0.0024,0.0024,0.0024,0.0024,0.0024,0.0024,0.0391,0.1147,0.0024,0.0415
0.0024,0.0024,0.0024,0.0024,0.0024,0.0024,0.0342,0.1416,0.0024,0.0317
0.0024,0.0024,0.0024,0.0024,0.0024,0.0024,0.0513,0.1318,0.0024,0.0391
0.0024,0.0024,0.0024,0.0024,0.0024,0.0024,0.0391,0.144,0.0024,0.0293
0.0049,0.0024,0.0024,0.0024,0.0024,0.0024,0.0391,0.1196,0.0024,0.0317
0.0024,0.0024,0.0049,0.0024,0.0024,0.0024,0.0366,0.1221,0.0024,0.0317
0.0122,0.0024,0.0024,0.0024,0.0049,0.0024,0.0488,0.1318,0.0024,0.0366
0.0049,0.0024,0.0024,0.0024,0.0024,0.0024,0.0244,0.1318,0.0024,0.0537
0.0024,0.0024,0.0024,0.0024,0.0024,0.0024,0.0366,0.1318,0.0024,0.0464
0.0024,0.0024,0.0024,0.0024,0.0024,0.0024,0.0098,0.1099,0.0024,0.0366
0.0049,0.0024,0.0024,0.0024,0.0024,0.0024,0.0366,0.1294,0.0024,0.0488
0.0024,0.0024,0.0024,0.0024,0.0024,0.0024,0.022,0.127,0.0024,0.0586
0.0073,0.0024,0.0024,0.0024,0.0049,0.0024,0.0244,0.0854,0.0024,0.0366
0.0024,0.0024,0.0024,0.0024,0.0024,0.0024,0.0195,0.0806,0.0024,0.0293
0.0024,0.0024,0.0024,0.0024,0.0024,0.0024,0.0171,0.0977,0.0024,0.0342
0.0269,0.0024,0.0024,0.0024,0.0024,0.0024,0.0293,0.083,0.0024,0.0464
0.0024,0.0024,0.0024,0.0024,0.0024,0.0024,0.0098,0.0732,0.0049,0.0244
0.0024,0.0024,0.0024,0.0024,0.0024,0.0024,0.0171,0.0977,0.0024,0.0244
0.0244,0.0024,0.0024,0.0024,0.0024,0.0024,0.0366,0.1294,0.0024,0.0317
0.0073,0.0024,0.0024,0.0024,0.0024,0.0024,0.0342,0.1123,0.0024,0.0415
0.0024,0.0024,0.0024,0.0024,0.0024,0.0024,0.0415,0.1489,0.0024,0.0439
0.0049,0.0024,0.0024,0.0024,0.0024,0.0024,0.0439,0.1123,0.0024,0.0488
0.0024,0.0024,0.0024,0.0049,0.0024,0.0024,0.0244,0.1025,0.0024,0.0513
0.0024,0.0024,0.0024,0.0024,0.0024,0.0024,0.022,0.1025,0.0024,0.0342
0.0049,0.0024,0.0024,0.0024,0.0024,0.0024,0.0269,0.0903,0.0024,0.0317
0.0049,0.0024,0.0024,0.0024,0.0024,0.0024,0.022,0.0854,0.0024,0.0342
0.0024,0.0024,0.0024,0.0024,0.0049,0.0024,0.0415,0.1147,0.0024,0.0464
0.0024,0.0024,0.0024,0.0024,0.0024,0.0024,0.0366,0.0977,0.0049,0.0366
0.0024,0.0024,0.0024,0.0024,0.0024,0.0024,0.0195,0.1074,0.0024,0.0269
0.0049,0.0024,0.0024,0.0024,0.0024,0.0024,0.1733,0.2026,0.0024,0.0488
0.0171,0.0024,0.0024,0.0024,0.0024,0.0024,0.3027,0.2856,0.0024,0.0366
0.0024,0.0024,0.0024,0.0024,0.0024,0.0024,0.1538,0.2026,0.0024,0.0415
0.0122,0.0024,0.0024,0.0024,0.0024,0.0024,0.0952,0.2148,0.0024,0.0439
0.0024,0.0024,0.0049,0.0024,0.0024,0.0024,0.0342,0.1074,0.0024,0.0342
0.0024,0.0024,0.0024,0.0024,0.0024,0.0024,0.0317,0.1563,0.0024,0.0366
0.0024,0.0024,0.0024,0.0024,0.0024,0.0024,0.0146,0.127,0.0024,0.0391
0.0024,0.0024,0.0024,0.0024,0.0024,0.0024,0.0537,0.1563,0.0024,0.0391
0.0024,0.0024,0.0024,0.0024,0.0024,0.0024,0.0635,0.1953,0.0024,0.0415
0.0146,0.0024,0.0024,0.0024,0.0024,0.0024,0.0684,0.21,0.0024,0.0391
0.0024,0.0024,0.0024,0.0024,0.0024,0.0024,0.0537,0.1587,0.0024,0.0439
0.0049,0.0024,0.0024,0.0024,0.0024,0.0024,0.0464,0.1392,0.0024,0.0244
0.0024,0.0024,0.0024,0.0024,0.0024,0.0024,0.0366,0.1367,0.0024,0.0537
0.0024,0.0024,0.0024,0.0024,0.0024,0.0024,0.0269,0.127,0.0024,0.0513
0.0024,0.0024,0.0024,0.0024,0.0024,0.0024,0.0171,0.1099,0.0024,0.0464
0.0024,0.0024,0.0024,0.0024,0.0024,0.0024,0.0049,0.1147,0.0024,0.0391
0.0098,0.0024,0.0024,0.0024,0.0024,0.0024,0.0366,0.1636,0.0024,0.0269
0.0049,0.0024,0.0024,0.0024,0.0024,0.0024,0.0171,0.1123,0.0024,0.0195
0.0122,0.0024,0.0024,0.0024,0.0024,0.0024,0.0464,0.1416,0.0024,0.0293
0.0317,0.0024,0.0024,0.0024,0.0024,0.0024,0.0317,0.1563,0.0024,0.0195
0.0024,0.0049,0.0024,0.0024,0.0024,0.0024,0.0146,0.1221,0.0024,0.0342
0.0024,0.0024,0.0024,0.0024,0.0024,0.0024,0.0122,0.127,0.0024,0.0293
0.0073,0.0024,0.0024,0.0024,0.0024,0.0024,0.0244,0.1147,0.0024,0.0342
0.0024,0.0024,0.0024,0.0024,0.0024,0.0024,0.0244,0.1392,0.0024,0.0366
0.0073,0.0024,0.0024,0.0024,0.0049,0.0024,0.0342,0.1465,0.0024,0.0513
0.0024,0.0024,0.0024,0.0024,0.0024,0.0024,0.0513,0.1416,0.0024,0.0317
0.0024,0.0024,0.0024,0.0024,0.0024,0.0024,0.0122,0.0977,0.0024,0.0269
0.0146,0.0024,0.0024,0.0024,0.0049,0.0024,0.0269,0.144,0.0024,0.0391
0.0024,0.0024,0.0024,0.0024,0.0024,0.0024,0.0024,0.1123,0.0024,0.022
0.0879,0.0024,0.0024,0.0024,0.0024,0.0024,0.0269,0.1294,0.0024,0.0415
0.1147,0.0024,0.0024,0.0024,0.0024,0.0024,0.0049,0.1001,0.0024,0.0415
0.0122,0.0024,0.0024,0.0024,0.0024,0.0024,0.0098,0.1001,0.0024,0.0439
0.0146,0.0024,0.0024,0.0024,0.0024,0.0024,0.022,0.1465,0.0024,0.0342
0.0024,0.0024,0.0024,0.0024,0.0024,0.0024,0.0195,0.1196,0.0024,0.0317
0.0073,0.0024,0.0049,0.0024,0.0024,0.0024,0.0293,0.1318,0.0024,0.0317
0.0073,0.0024,0.0024,0.0024,0.0024,0.0024,0.0244,0.1001,0.0024,0.0366
0.1709,0.0024,0.0024,0.0024,0.0024,0.0024,0.0171,0.1611,0.0024,0.0317
0.105,0.0024,0.0024,0.0024,0.0024,0.0024,0.0098,0.1172,0.0024,0.0317
0.1099,0.0024,0.0024,0.0024,0.0024,0.0024,0.0024,0.1123,0.0024,0.0366
0.1099,0.0024,0.0024,0.0024,0.0024,0.0024,0.0098,0.1147,0.0024,0.0293
0.0317,0.0024,0.0024,0.0024,0.0024,0.0024,0.0024,0.0684,0.0024,0.0293
0.0049,0.0024,0.0024,0.0024,0.0024,0.0024,0.0049,0.0757,0.0024,0.0317
0.188,0.0024,0.0024,0.0024,0.0024,0.0024,0.0024,0.1367,0.0024,0.0342
0.0684,0.0024,0.0024,0.0024,0.0024,0.0024,0.0244,0.1221,0.0024,0.0464
0.0562,0.0024,0.0049,0.0024,0.0024,0.0024,0.0195,0.1172,0.0024,0.0415
0.0757,0.0024,0.0024,0.0024,0.0049,0.0024,0.0073,0.1172,0.0024,0.0391
0.0293,0.0024,0.0024,0.0024,0.0024,0.0024,0.0024,0.0879,0.0024,0.0269
0.0537,0.0024,0.0024,0.0024,0.0024,0.0024,0.0171,0.127,0.0024,0.0342
0.0488,0.0024,0.0024,0.0024,0.0024,0.0024,0.0049,0.0952,0.0024,0.0317
0.1538,0.0024,0.0024,0.0024,0.0024,0.0024,0.0269,0.1636,0.0024,0.0391
0.1392,0.0024,0.0024,0.0024,0.0024,0.0024,0.022,0.1514,0.0024,0.0391
0.1074,0.0024,0.0024,0.0024,0.0024,0.0024,0.0098,0.1196,0.0024,0.0391
0.1392,0.0024,0.0024,0.0024,0.0024,0.0024,0.0024,0.144,0.0024,0.0391
0.1489,0.0024,0.0024,0.0024,0.0024,0.0024,0.0195,0.1807,0.0024,0.0415
0.1587,0.0024,0.0024,0.0024,0.0024,0.0024,0.0122,0.166,0.0024,0.0317
0.0293,0.0024,0.0024,0.0024,0.0024,0.0024,0.0146,0.1147,0.0024,0.0464
0.0024,0.0024,0.0024,0.0024,0.0049,0.0024,0.0073,0.1514,0.0024,0.0366
0.0317,0.0024,0.0024,0.0024,0.0024,0.0024,0.0732,0.1953,0.0024,0.0488
0.022,0.0024,0.0024,0.0024,0.0024,0.0024,0.0146,0.1343,0.0024,0.0391
0.0024,0.0024,0.0024,0.0024,0.0024,0.0024,0.0195,0.1294,0.0024,0.0342
0.0024,0.0024,0.0024,0.0024,0.0024,0.0024,0.0415,0.166,0.0024,0.0366
0.0122,0.0024,0.0024,0.0024,0.0024,0.0024,0.0171,0.1147,0.0024,0.0342
0.0269,0.0024,0.0024,0.0024,0.0024,0.0024,0.0244,0.1318,0.0024,0.0342
0.0049,0.0024,0.0024,0.0024,0.0024,0.0024,0.0195,0.1099,0.0024,0.0366
0.0049,0.0024,0.0024,0.0024,0.0024,0.0024,0.022,0.0977,0.0024,0.0293
0.0049,0.0024,0.0024,0.0024,0.0024,0.0024,0.0244,0.1343,0.0024,0.0366
0.0928,0.0024,0.0024,0.0024,0.0024,0.0024,0.0073,0.1392,0.0073,0.0342
0.1392,0.0024,0.0024,0.0024,0.0024,0.0024,0.0098,0.1904,0.0024,0.0488
0.0635,0.0024,0.0024,0.0024,0.0024,0.0024,0.0024,0.0879,0.0024,0.0098
0.0024,0.0024,0.0024,0.0024,0.0024,0.0024,0.0244,0.0879,0.0024,0.0269
0.0171,0.0024,0.0024,0.0024,0.0024,0.0024,0.0171,0.1245,0.0024,0.0244
0.0171,0.0024,0.0024,0.0024,0.0024,0.0024,0.0122,0.1099,0.0024,0.0366
0.0024,0.0024,0.0024,0.0024,0.0024,0.0024,0.0098,0.1123,0.0024,0.0293
0.0098,0.0024,0.0024,0.0024,0.0024,0.0024,0.0049,0.1001,0.0024,0.0317
0.0903,0.0024,0.0024,0.0024,0.0024,0.0024,0.0928,0.1538,0.0024,0.0269
0.1978,0.0024,0.0024,0.0024,0.0024,0.0024,0.0781,0.1343,0.0024,0.0146
0.1343,0.0024,0.0024,0.0024,0.0024,0.0024,0.0195,0.1636,0.0024,0.0244
0.1709,0.0024,0.0024,0.0024,0.0049,0.0024,0.022,0.127,0.0024,0.0317
0.1099,0.0024,0.0024,0.0024,0.0024,0.0024,0.0317,0.1367,0.0024,0.0122
0.1245,0.0024,0.0024,0.0024,0.0024,0.0024,0.0171,0.1221,0.0024,0.0171
0.1587,0.0024,0.0024,0.0024,0.0024,0.0024,0.0317,0.1514,0.0024,0.0293
0.0708,0.0024,0.0024,0.0024,0.0049,0.0024,0.0366,0.1367,0.0024,0.0171
0.0586,0.0024,0.0024,0.0024,0.0024,0.0024,0.0537,0.166,0.0024,0.0342
0.0488,0.0024,0.0049,0.0024,0.0024,0.0024,0.0098,0.083,0.0024,0.022
0.0537,0.0024,0.0024,0.0024,0.0024,0.0024,0.0293,0.1367,0.0024,0.0195
0.1025,0.0024,0.0024,0.0024,0.0024,0.0024,0.0342,0.0854,0.0024,0.0293
0.1587,0.0024,0.0024,0.0024,0.0049,0.0024,0.0391,0.1416,0.0024,0.0342
0.144,0.0024,0.0024,0.0049,0.0024,0.0024,0.0024,0.1196,0.0024,0.1123
0.1489,0.0024,0.0024,0.0024,0.0024,0.0024,0.0024,0.1172,0.0024,0.0269
0.2661,0.0024,0.0024,0.0024,0.0024,0.0024,0.0073,0.1538,0.0024,0.0171
0.1758,0.0024,0.0024,0.0024,0.0024,0.0024,0.0073,0.1318,0.0024,0.0244
0.1489,0.0024,0.0024,0.0024,0.0024,0.0024,0.0146,0.1099,0.0024,0.0195
0.1587,0.0024,0.0024,0.0024,0.0024,0.0024,0.0122,0.1074,0.0024,0.022
0.0659,0.0024,0.0024,0.0024,0.0024,0.0024,0.022,0.0928,0.0024,0.0195
0.0977,0.0024,0.0024,0.0024,0.0049,0.0024,0.0122,0.0879,0.0024,0.0122
0.0464,0.0024,0.0024,0.0024,0.0024,0.0024,0.0171,0.0903,0.0024,0.0195
0.0562,0.0024,0.0024,0.0024,0.0024,0.0024,0.0098,0.0635,0.0024,0.0146
0.0195,0.0024,0.0024,0.0024,0.0024,0.0024,0.0024,0.0635,0.0024,0.022
0.1074,0.0024,0.0024,0.0024,0.0024,0.0024,0.0122,0.0806,0.0024,0.022
0.1074,0.0024,0.0024,0.0024,0.0024,0.0024,0.022,0.083,0.0024,0.0317
0.2051,0.0024,0.0024,0.0024,0.0024,0.0024,0.0269,0.1343,0.0024,0.0244
0.1904,0.0024,0.0024,0.0024,0.0024,0.0024,0.0195,0.1343,0.0024,0.0269
0.0342,0.0024,0.0024,0.0024,0.0024,0.0024,0.0024,0.0464,0.0024,0.0391
0.0244,0.0024,0.0024,0.0024,0.0024,0.0024,0.0024,0.0586,0.0024,0.0464
0.0537,0.0024,0.0024,0.0024,0.0024,0.0024,0.0024,0.0659,0.0024,0.0439
0.0537,0.0024,0.0024,0.0024,0.0024,0.0024,0.0024,0.0684,0.0024,0.0488
0.0732,0.0024,0.0024,0.0024,0.0024,0.0024,0.0024,0.0635,0.0024,0.0439
0.0171,0.0024,0.0024,0.0024,0.0024,0.0024,0.0024,0.061,0.0024,0.0439
0.0269,0.0024,0.0024,0.0024,0.0024,0.0024,0.0024,0.061,0.0024,0.0415
0.0513,0.0024,0.0024,0.0024,0.0024,0.0024,0.0024,0.0659,0.0024,0.0415
0.0244,0.0024,0.0049,0.0024,0.0024,0.0024,0.0024,0.0635,0.0024,0.0537
0.0708,0.0024,0.0024,0.0024,0.0024,0.0024,0.0024,0.0708,0.0024,0.0269
0.0439,0.0024,0.0024,0.0024,0.0024,0.0024,0.0024,0.0732,0.0024,0.0415
0.0244,0.0024,0.0024,0.0024,0.0024,0.0024,0.0024,0.0635,0.0024,0.0293
0.0342,0.0024,0.0024,0.0024,0.0024,0.0024,0.0342,0.0879,0.0024,0.0366
0.0024,0.0024,0.0024,0.0024,0.0024,0.0024,0.0024,0.083,0.0024,0.0195
0.0073,0.0024,0.0024,0.0024,0.0024,0.0024,0.0171,0.0806,0.0024,0.0317
0.1074,0.0024,0.0024,0.0024,0.0024,0.0024,0.0366,0.1099,0.0024,0.0244
0.1929,0.0024,0.0024,0.0024,0.0024,0.0024,0.0073,0.127,0.0024,0.0195
0.1025,0.0024,0.0024,0.0024,0.0024,0.0024,0.0122,0.1025,0.0024,0.0269
0.0757,0.0024,0.0049,0.0024,0.0024,0.0024,0.0317,0.1245,0.0024,0.0269
0.0977,0.0024,0.0024,0.0024,0.0024,0.0024,0.0024,0.0977,0.0024,0.0293
0.127,0.0024,0.0024,0.0024,0.0024,0.0024,0.0098,0.1025,0.0024,0.0317
0.0781,0.0024,0.0024,0.0024,0.0024,0.0024,0.0293,0.1025,0.0024,0.0269
0.0537,0.0024,0.0024,0.0024,0.0024,0.0024,0.0024,0.0757,0.0024,0.0244
0.0586,0.0342,0.0122,0.0024,0.0024,0.0024,0.127,0.2075,0.0732,0.0488
0.0049,0.0024,0.0024,0.0024,0.0024,0.0024,0.022,0.0854,0.0024,0.0293
0.0049,0.0024,0.0024,0.0024,0.0024,0.0024,0.0171,0.0879,0.0024,0.0269
0.0342,0.0024,0.0024,0.0024,0.0024,0.0024,0.0244,0.1099,0.0024,0.0317
0.0049,0.0024,0.0024,0.0024,0.0024,0.0024,0.0195,0.1318,0.0024,0.0391
0.0073,0.0024,0.0049,0.0024,0.0024,0.0024,0.0317,0.1001,0.0024,0.0293
0.0073,0.0024,0.0024,0.0024,0.0024,0.0024,0.0146,0.0854,0.0024,0.0269
0.0146,0.0024,0.0024,0.0049,0.0024,0.0024,0.022,0.1172,0.0024,0.0488
0.0024,0.0024,0.0049,0.0024,0.0024,0.0024,0.0024,0.0366,0.0024,0.022
0.0024,0.0024,0.0024,0.0024,0.0024,0.0024,0.0049,0.0366,0.0024,0.0269
0.0024,0.0024,0.0024,0.0024,0.0024,0.0024,0.0122,0.0537,0.0024,0.0366
0.0024,0.0024,0.0024,0.0024,0.0024,0.0024,0.0122,0.0586,0.0024,0.0342
0.0049,0.0024,0.0024,0.0024,0.0024,0.0024,0.0146,0.0537,0.0024,0.0342
0.0024,0.0024,0.0024,0.0024,0.0024,0.0024,0.0269,0.0684,0.0024,0.0244
0.0024,0.0024,0.0024,0.0024,0.0024,0.0024,0.0195,0.061,0.0024,0.0195
0.0024,0.0024,0.0024,0.0024,0.0024,0.0024,0.0122,0.0684,0.0024,0.0195
0.0024,0.0024,0.0024,0.0049,0.0024,0.0024,0.0293,0.0854,0.0024,0.022
0.0024,0.0024,0.0049,0.0024,0.0024,0.0024,0.0024,0.0903,0.0024,0.0293
0.0073,0.0024,0.0024,0.0024,0.0024,0.0024,0.0024,0.0537,0.0024,0.0293
0.0024,0.0024,0.0024,0.0024,0.0024,0.0024,0.0195,0.0854,0.0024,0.0244
0.0073,0.0024,0.0024,0.0024,0.0024,0.0024,0.0439,0.105,0.0024,0.0586
0.0024,0.0024,0.0024,0.0024,0.0024,0.0024,0.0269,0.0732,0.0024,0.0366
0.0024,0.0024,0.0024,0.0024,0.0024,0.0024,0.0073,0.0757,0.0024,0.0464
0.0024,0.0024,0.0024,0.0024,0.0024,0.0024,0.0073,0.0562,0.0024,0.0317
0.0171,0.0024,0.0024,0.0024,0.0024,0.0024,0.0195,0.0684,0.0024,0.061
0.0024,0.0024,0.0024,0.0049,0.0024,0.0024,0.0073,0.022,0.0024,0.0732
0.0024,0.0024,0.0024,0.0024,0.0024,0.0024,0.0098,0.0171,0.0024,0.0757
0.0024,0.0024,0.0024,0.0024,0.0024,0.0024,0.0024,0.0122,0.0024,0.0366
0.0073,0.0024,0.0024,0.0024,0.0049,0.0024,0.0024,0.0317,0.0024,0.0464
0.0024,0.0024,0.0024,0.0049,0.0024,0.0024,0.0024,0.0342,0.0024,0.0366
0.0024,0.0024,0.0024,0.0024,0.0024,0.0024,0.0146,0.0366,0.0024,0.0488
0.0024,0.0024,0.0024,0.0024,0.0024,0.0024,0.0122,0.0439,0.0024,0.0488
0.0342,0.0024,0.0024,0.0024,0.0024,0.0024,0.0146,0.0439,0.0024,0.0366
0.0049,0.0024,0.0049,0.0024,0.0024,0.0024,0.0024,0.0342,0.0024,0.0537
0.0024,0.0024,0.0024,0.0024,0.0024,0.0024,0.0024,0.0244,0.0024,0.0708
0.0024,0.0024,0.0024,0.0024,0.0024,0.0024,0.0073,0.0366,0.0024,0.0562
0.0024,0.0024,0.0024,0.0024,0.0024,0.0024,0.0024,0.0439,0.0024,0.0635
0.0464,0.0024,0.0024,0.0024,0.0024,0.0024,0.0024,0.0708,0.3101,0.0684
0.0317,0.0024,0.0024,0.0024,0.0024,0.0024,0.0024,0.0708,0.1245,0.0635
0.1611,0.0024,0.0024,0.0024,0.0024,0.0024,0.0244,0.1074,0.0024,0.0635
0.1636,0.0024,0.0049,0.0024,0.0024,0.0024,0.0073,0.1318,0.0024,0.0635
0.1099,0.0024,0.0024,0.0024,0.0024,0.0024,0.0024,0.1147,0.0024,0.0684
0.127,0.0024,0.0024,0.0024,0.0024,0.0024,0.0049,0.0854,0.0024,0.0635
0.0049,0.0024,0.0024,0.0024,0.0024,0.0024,0.0171,0.0732,0.0464,0.061
0.0342,0.0024,0.0024,0.0024,0.0024,0.0024,0.0024,0.0732,0.0024,0.0635
0.0024,0.0024,0.0024,0.0024,0.0024,0.0024,0.0024,0.0366,0.0024,0.0757
0.0024,0.0024,0.0024,0.0024,0.0024,0.0024,0.0049,0.0684,0.0024,0.0684
0.0195,0.0024,0.0024,0.0024,0.0024,0.0024,0.0024,0.0659,0.0024,0.0635
0.0171,0.0024,0.0024,0.0024,0.0024,0.0024,0.0024,0.0708,0.0024,0.0562
0.022,0.0024,0.0024,0.0024,0.0024,0.0024,0.0024,0.0757,0.0024,0.0513
0.0342,0.0024,0.0024,0.0024,0.0024,0.0024,0.0024,0.0732,0.0024,0.0562
0.0366,0.0024,0.0024,0.0024,0.0024,0.0024,0.0122,0.1221,0.0024,0.0659
0.0024,0.0024,0.0024,0.0024,0.0049,0.0024,0.0024,0.0293,0.0024,0.0513
0.0024,0.0024,0.0024,0.0024,0.0049,0.0024,0.0024,0.0464,0.0024,0.0513
0.0024,0.0024,0.0024,0.0024,0.0049,0.0024,0.0049,0.0415,0.0024,0.0537
0.0024,0.0024,0.0024,0.0024,0.0049,0.0024,0.0024,0.0684,0.0024,0.061
0.0049,0.0024,0.0024,0.0024,0.0024,0.0024,0.0024,0.061,0.0024,0.0879
0.0024,0.0024,0.0024,0.0024,0.0024,0.0024,0.0122,0.0854,0.0024,0.083
0.0049,0.0024,0.0024,0.0024,0.0024,0.0024,0.0366,0.0684,0.0024,0.061
0.0342,0.0024,0.0024,0.0024,0.0049,0.0024,0.0024,0.0732,0.0024,0.061
0.022,0.0024,0.0024,0.0024,0.0024,0.0024,0.022,0.0757,0.0024,0.083
0.0366,0.0024,0.0024,0.0024,0.0024,0.0024,0.0293,0.1172,0.0024,0.0659
0.0464,0.0024,0.0024,0.0024,0.0024,0.0024,0.0269,0.1123,0.0024,0.061
0.0366,0.0024,0.0024,0.0024,0.0024,0.0024,0.0146,0.0952,0.0024,0.0513
0.0098,0.0024,0.0024,0.0024,0.0024,0.0024,0.0024,0.0806,0.0024,0.0513
0.0635,0.0024,0.0024,0.0024,0.0024,0.0024,0.0269,0.1074,0.0024,0.0513
0.1953,0.0024,0.0024,0.0024,0.0024,0.0024,0.0049,0.1221,0.0024,0.061
0.1978,0.0024,0.0024,0.0024,0.0024,0.0024,0.0098,0.1318,0.0024,0.0635
0.2905,0.0024,0.0024,0.0024,0.0024,0.0024,0.0024,0.2173,0.0024,0.0464
0.1587,0.0024,0.0024,0.0024,0.0024,0.0024,0.0024,0.1123,0.0024,0.0488
0.0952,0.0024,0.0024,0.0024,0.0024,0.0024,0.0024,0.0952,0.0024,0.0488
0.0977,0.0024,0.0024,0.0024,0.0024,0.0024,0.0195,0.0854,0.0024,0.0488
0.1465,0.0024,0.0024,0.0024,0.0024,0.0024,0.0049,0.0903,0.0024,0.0464
0.1343,0.0024,0.0024,0.0024,0.0024,0.0024,0.0146,0.1001,0.0024,0.0488
0.1196,0.0024,0.0024,0.0024,0.0024,0.0024,0.0146,0.083,0.0024,0.0659
0.1416,0.0024,0.0024,0.0024,0.0024,0.0024,0.0073,0.1172,0.0024,0.0342
0.0439,0.0024,0.0024,0.0024,0.0024,0.0024,0.0537,0.0806,0.0024,0.0391
0.083,0.0024,0.0024,0.0024,0.0024,0.0024,0.0952,0.1025,0.0024,0.0415
0.0537,0.0024,0.0024,0.0024,0.0024,0.0024,0.0171,0.0977,0.0024,0.0513
0.0488,0.0024,0.0024,0.0024,0.0024,0.0024,0.0024,0.0854,0.0024,0.0488
0.0269,0.0024,0.0049,0.0024,0.0024,0.0024,0.0024,0.0537,0.0024,0.0757
0.0464,0.0024,0.0024,0.0024,0.0024,0.0024,0.0122,0.0684,0.0024,0.0708
0.0098,0.0024,0.0024,0.0024,0.0024,0.0024,0.0537,0.0854,0.0024,0.0854
0.0024,0.0024,0.0024,0.0024,0.0024,0.0024,0.2417,0.1538,0.0024,0.061
0.0049,0.0024,0.0024,0.0024,0.0024,0.0024,0.1147,0.1929,0.0024,0.0488
0.0024,0.0024,0.0024,0.0024,0.0024,0.0024,0.0391,0.0928,0.0024,0.0562
0.0024,0.0024,0.0024,0.0024,0.0024,0.0024,0.0537,0.1221,0.0024,0.0684
0.0024,0.0024,0.0024,0.0024,0.0024,0.0024,0.0391,0.0952,0.0024,0.0708
0.0024,0.0024,0.0024,0.0024,0.0024,0.0024,0.0171,0.0879,0.0024,0.0659
0.0024,0.0024,0.0024,0.0024,0.0024,0.0024,0.0073,0.0684,0.0024,0.061
0.0024,0.0024,0.0024,0.0024,0.0024,0.0024,0.0024,0.0806,0.0024,0.0562
0.0024,0.0024,0.0024,0.0024,0.0049,0.0024,0.0488,0.0562,0.0024,0.0562
0.0098,0.0024,0.0024,0.0024,0.0024,0.0024,0.0024,0.0635,0.0024,0.0635
0.0049,0.0024,0.0024,0.0024,0.0024,0.0024,0.0146,0.0586,0.0024,0.0366
0.0024,0.0024,0.0024,0.0024,0.0024,0.0024,0.0171,0.0586,0.0024,0.0439
0.0049,0.0024,0.0024,0.0024,0.0024,0.0024,0.0171,0.0806,0.0024,0.0562
0.0049,0.0024,0.0024,0.0024,0.0024,0.0024,0.0049,0.061,0.0024,0.0488
0.0049,0.0024,0.0024,0.0024,0.0024,0.0024,0.0049,0.0635,0.0024,0.0537
0.0024,0.0024,0.0024,0.0024,0.0024,0.0024,0.0073,0.0684,0.0024,0.0562
0.0024,0.0024,0.0024,0.0024,0.0024,0.0024,0.0146,0.0415,0.0024,0.0439
0.0024,0.0024,0.0049,0.0024,0.0024,0.0024,0.0073,0.061,0.0024,0.0317
0.0024,0.0024,0.0024,0.0024,0.0024,0.0024,0.0049,0.0537,0.0024,0.0464
0.0049,0.0024,0.0024,0.0024,0.0024,0.0024,0.0171,0.0806,0.0024,0.0439
0.0024,0.0024,0.0024,0.0024,0.0049,0.0024,0.0146,0.0757,0.0024,0.0415
0.0024,0.0024,0.0024,0.0024,0.0024,0.0024,0.0073,0.0708,0.0024,0.0317
0.0293,0.0024,0.0024,0.0024,0.0024,0.0024,0.0024,0.0488,0.0024,0.0562
0.0293,0.0024,0.0024,0.0024,0.0024,0.0024,0.0024,0.0513,0.0024,0.0415
0.0024,0.0024,0.0049,0.0024,0.0024,0.0024,0.0024,0.0513,0.0024,0.0342
0.0366,0.0024,0.0024,0.0024,0.0024,0.0024,0.0073,0.0562,0.0024,0.0488
0.0317,0.0024,0.0024,0.0024,0.0024,0.0024,0.0024,0.0757,0.0024,0.0488
0.0293,0.0024,0.0024,0.0024,0.0024,0.0024,0.0024,0.0806,0.0024,0.0464
0.0122,0.0024,0.0024,0.0024,0.0024,0.0024,0.0024,0.0464,0.0024,0.0513
0.0024,0.0024,0.0049,0.0024,0.0024,0.0024,0.0024,0.0757,0.0024,0.0293
0.0024,0.0024,0.0024,0.0024,0.0024,0.0024,0.022,0.083,0.0024,0.0415
0.0098,0.0024,0.0024,0.0024,0.0024,0.0024,0.0244,0.0952,0.0024,0.0391
0.0098,0.0024,0.0024,0.0024,0.0024,0.0024,0.0171,0.0903,0.0024,0.0562
0.0122,0.0024,0.0024,0.0024,0.0024,0.0024,0.0024,0.0635,0.0024,0.0684
0.0269,0.0024,0.0024,0.0024,0.0024,0.0024,0.0024,0.0708,0.0024,0.0659
0.0098,0.0024,0.0024,0.0024,0.0024,0.0024,0.0024,0.061,0.0024,0.0366
0.0098,0.0024,0.0024,0.0024,0.0024,0.0024,0.0073,0.0488,0.0024,0.0293
0.0366,0.0024,0.0024,0.0024,0.0024,0.0024,0.0146,0.0806,0.0024,0.0439
0.0049,0.0024,0.0024,0.0024,0.0024,0.0024,0.0073,0.0806,0.0024,0.0513
0.0122,0.0024,0.0024,0.0024,0.0024,0.0024,0.0049,0.0684,0.0024,0.0366
0.0171,0.0024,0.0024,0.0024,0.0024,0.0024,0.0391,0.1025,0.0024,0.0537
0.0342,0.0024,0.0024,0.0024,0.0024,0.0024,0.0122,0.1172,0.0024,0.0391
0.0171,0.0024,0.0024,0.0024,0.0024,0.0024,0.0024,0.0879,0.0024,0.0415
0.0415,0.0024,0.0024,0.0024,0.0024,0.0024,0.0098,0.0952,0.0024,0.061
0.0195,0.0024,0.0024,0.0024,0.0024,0.0024,0.0122,0.0977,0.0024,0.0488
0.0562,0.0024,0.0024,0.0024,0.0024,0.0024,0.0098,0.105,0.0024,0.0464
0.0415,0.0024,0.0024,0.0024,0.0024,0.0024,0.0024,0.1172,0.0024,0.0317
0.0464,0.0024,0.0024,0.0024,0.0024,0.0024,0.0122,0.127,0.0024,0.0513
0.0488,0.0024,0.0024,0.0024,0.0024,0.0024,0.0269,0.144,0.0024,0.0293
0.0195,0.0024,0.0024,0.0024,0.0024,0.0024,0.0024,0.0708,0.0024,0.0415
0.0171,0.0024,0.0024,0.0024,0.0024,0.0024,0.0024,0.0684,0.0024,0.0391
0.022,0.0024,0.0024,0.0049,0.0024,0.0024,0.0024,0.0928,0.0024,0.0244
0.0146,0.0024,0.0024,0.0049,0.0024,0.0024,0.0024,0.0562,0.0024,0.0464
0.0146,0.0024,0.0024,0.0024,0.0024,0.0024,0.0098,0.0537,0.0024,0.0342
0.0098,0.0024,0.0024,0.0024,0.0024,0.0024,0.0024,0.0415,0.0024,0.0366
0.0122,0.0024,0.0024,0.0024,0.0024,0.0024,0.0024,0.0366,0.0024,0.0415
0.0146,0.0024,0.0024,0.0024,0.0024,0.0024,0.0171,0.0513,0.0024,0.0293
0.0122,0.0024,0.0024,0.0024,0.0122,0.0024,0.0024,0.0854,0.0024,0.0415
0.0024,0.0024,0.0049,0.0024,0.0024,0.0024,0.0024,0.0781,0.0024,0.0366
0.0024,0.0024,0.0024,0.0024,0.0024,0.0024,0.0073,0.0464,0.0024,0.0635
0.0024,0.0024,0.0024,0.0024,0.0049,0.0024,0.0024,0.0269,0.0024,0.0537
0.0049,0.0024,0.0024,0.0024,0.0024,0.0024,0.0024,0.0342,0.0024,0.0562
0.0024,0.0024,0.0024,0.0024,0.0024,0.0024,0.0024,0.0684,0.0024,0.0488
0.0024,0.0024,0.0024,0.0024,0.0024,0.0024,0.0317,0.1001,0.0024,0.0586
0.0024,0.0024,0.0024,0.0024,0.0024,0.0024,0.0366,0.0903,0.0024,0.061
0.0024,0.0024,0.0024,0.0024,0.0024,0.0024,0.0317,0.0757,0.0024,0.0537
0.0024,0.0024,0.0024,0.0024,0.0024,0.0024,0.0293,0.0977,0.0024,0.0488
0.0049,0.0024,0.0024,0.0024,0.0024,0.0024,0.0366,0.083,0.0024,0.0439
0.0024,0.0024,0.0024,0.0024,0.0024,0.0024,0.0146,0.083,0.0024,0.0464
0.0049,0.0024,0.0024,0.0024,0.0024,0.0024,0.0244,0.1196,0.0024,0.0513
0.0024,0.0024,0.0024,0.0024,0.0049,0.0024,0.0024,0.0952,0.0024,0.0439
0.0024,0.0024,0.0024,0.0024,0.0024,0.0024,0.0146,0.0708,0.0024,0.0464
0.0024,0.0024,0.0024,0.0024,0.0024,0.0024,0.022,0.0488,0.0024,0.0464
0.0024,0.0024,0.0024,0.0024,0.0024,0.0024,0.0195,0.0464,0.0024,0.0464
0.0073,0.0024,0.0024,0.0024,0.0024,0.0024,0.0024,0.0684,0.0024,0.0635
0.0073,0.0024,0.0024,0.0024,0.0024,0.0024,0.0024,0.0415,0.0024,0.0537
0.0073,0.0024,0.0024,0.0024,0.0024,0.0024,0.0024,0.0317,0.0024,0.0562
0.0146,0.0024,0.0024,0.0024,0.0024,0.0024,0.0049,0.0317,0.0024,0.0342
0.0098,0.0024,0.0024,0.0024,0.0024,0.0024,0.0024,0.0244,0.0024,0.061
0.0195,0.0024,0.0024,0.0024,0.0024,0.0024,0.0024,0.0244,0.0024,0.061
0.0342,0.0024,0.0024,0.0024,0.0024,0.0024,0.0024,0.0586,0.0024,0.0537
0.0024,0.0024,0.0024,0.0024,0.0024,0.0024,0.0098,0.0488,0.0024,0.0537
0.0024,0.0024,0.0024,0.0024,0.0024,0.0024,0.0073,0.022,0.0024,0.0635
0.0024,0.0024,0.0024,0.0024,0.0049,0.0024,0.0024,0.0488,0.0024,0.0562
0.022,0.0024,0.0024,0.0024,0.0024,0.0024,0.0024,0.0366,0.0024,0.0366
0.0146,0.0024,0.0024,0.0024,0.0024,0.0024,0.0024,0.0488,0.0024,0.061
0.0293,0.0024,0.0024,0.0024,0.0024,0.0024,0.0024,0.0488,0.0024,0.0537
0.0024,0.0024,0.0024,0.0024,0.0024,0.0024,0.0024,0.0464,0.0024,0.0854
0.0073,0.0024,0.0024,0.0024,0.0024,0.0024,0.0122,0.0586,0.0024,0.0391
0.0098,0.0024,0.0024,0.0024,0.0024,0.0024,0.0024,0.0464,0.0024,0.0513
0.0024,0.0024,0.0024,0.0024,0.0024,0.0024,0.0073,0.0439,0.0024,0.0366
0.0024,0.0024,0.0024,0.0098,0.0415,0.0073,0.0635,0.0391,0.0024,0.0562
0.0146,0.0024,0.0024,0.0024,0.0122,0.0024,0.1074,0.21,0.0098,0.061
0.0781,0.0024,0.0024,0.0024,0.0024,0.0171,0.5176,0.2612,0.0024,0.1147
0.0171,0.0024,0.0342,0.0977,0.1123,0.0854,0.4834,0.166,0.0024,0.1929
0.0244,0.0024,0.0464,0.0806,0.0024,0.0195,0.2979,0.2051,1.145,0.2222
0.0024,0.0024,0.0024,0.0024,0.0024,0.0024,0.0952,0.105,0.0024,0.0513
0.0098,0.0024,0.0024,0.0024,0.0024,0.0024,0.0806,0.1367,0.0024,0.0586
0.0024,0.0024,0.0024,0.0024,0.0024,0.0024,0.0464,0.1343,0.0024,0.0464
0.0708,0.0024,0.0024,0.0024,0.0024,0.0024,0.1611,0.1489,0.0024,0.0659
0.0464,0.0024,0.0024,0.0024,0.0024,0.0024,0.127,0.1147,0.0024,0.0391
0.0024,0.0024,0.0024,0.0024,0.0024,0.0024,0.127,0.0977,0.0024,0.0513
0.0098,0.0024,0.0024,0.0024,0.0024,0.0024,0.1172,0.0903,0.0024,0.0488
0.0513,0.0024,0.0024,0.0024,0.0024,0.0024,0.2148,0.1538,0.0024,0.0537
0.0342,0.0024,0.0024,0.0024,0.0024,0.0024,0.2588,0.1221,0.0024,0.061
0.0439,0.0024,0.0024,0.0024,0.0024,0.0024,0.1538,0.105,0.0024,0.0562
0.0073,0.0024,0.0024,0.0024,0.0024,0.0024,0.2637,0.0977,0.0024,0.0415
0.0464,0.0024,0.0024,0.0024,0.0024,0.0024,0.1563,0.0952,0.0024,0.0659
0.0269,0.0024,0.0024,0.0024,0.0024,0.0024,0.1147,0.083,0.0024,0.0635
0.0098,0.0049,0.0024,0.0024,0.0024,0.0024,0.1099,0.0732,0.0024,0.061
0.0024,0.0024,0.0024,0.0024,0.0024,0.0024,0.0903,0.0537,0.0024,0.0513
0.0024,0.0024,0.0024,0.0024,0.0024,0.0024,0.1709,0.0806,0.0024,0.0342
0.0391,0.0024,0.0024,0.0024,0.0024,0.0024,0.1074,0.1172,0.0049,0.105
0.0024,0.0024,0.0024,0.0024,0.0024,0.0024,0.0757,0.0708,0.0049,0.0562
0.0073,0.0024,0.0024,0.0024,0.0024,0.0024,0.0977,0.0684,0.0024,0.0586
0.0024,0.0024,0.0024,0.0024,0.0024,0.0024,0.1318,0.0708,0.0024,0.0635
0.0024,0.0024,0.0024,0.0024,0.0024,0.0024,0.0488,0.0684,0.0024,0.0513
0.0049,0.0024,0.0024,0.0024,0.0024,0.0024,0.1172,0.0586,0.0024,0.0757
0.0024,0.0024,0.0024,0.0024,0.0024,0.0024,0.0562,0.0586,0.0024,0.0562
0.0024,0.0024,0.0024,0.0024,0.0024,0.0024,0.0757,0.0537,0.0024,0.0537
0.0024,0.0024,0.0024,0.0024,0.0024,0.0024,0.0708,0.0439,0.0024,0.0488
0.0024,0.0024,0.0024,0.0024,0.0024,0.0024,0.0366,0.0488,0.0024,0.0537
0.0024,0.0024,0.0024,0.0024,0.0024,0.0024,0.0757,0.0366,0.0024,0.0513
0.022,0.0024,0.0024,0.0024,0.0024,0.0024,0.0879,0.1465,0.0024,0.0537
0.0024,0.0024,0.0024,0.0024,0.0024,0.0024,0.0586,0.0708,0.0024,0.061
0.0244,0.0024,0.0024,0.0024,0.0024,0.0024,0.0732,0.0952,0.0024,0.0781
0.0049,0.0024,0.0024,0.0024,0.0024,0.0024,0.0854,0.0708,0.0024,0.0366
0.0024,0.0024,0.0024,0.0024,0.0024,0.0024,0.1025,0.0635,0.0024,0.0415
0.0146,0.0024,0.0049,0.0024,0.0024,0.0024,0.0854,0.0537,0.0024,0.0513
0.0024,0.0024,0.0024,0.0024,0.0024,0.0024,0.0537,0.0732,0.0024,0.0513
0.0806,0.0024,0.0024,0.0024,0.0024,0.0024,0.0903,0.1172,0.0024,0.0684
0.0024,0.0024,0.0024,0.0024,0.0024,0.0024,0.1172,0.0708,0.0146,0.0513
0.0024,0.0024,0.0024,0.0024,0.0049,0.0024,0.1294,0.0684,0.0073,0.0464
0.0708,0.0024,0.0024,0.0171,0.0024,0.0024,0.1416,0.1611,1.2939,0.3735
0.0122,0.0024,0.0024,0.0024,0.0024,0.0024,0.1318,0.1538,0.1758,0.1416
0.0366,0.0024,0.0024,0.0024,0.0024,0.0024,0.1001,0.1514,0.0024,0.0464
0.0024,0.0024,0.0024,0.0024,0.0024,0.0024,0.0513,0.083,0.0024,0.0391
0.0024,0.0024,0.0049,0.0146,0.0024,0.0024,0.0659,0.1172,0.0024,0.0439
0.0073,0.0024,0.0024,0.0024,0.0024,0.0024,0.0781,0.1318,0.0024,0.0537
0.0073,0.0024,0.0024,0.0024,0.0024,0.0024,0.0366,0.0903,0.0146,0.0464
0.0049,0.0024,0.0049,0.0024,0.0024,0.0024,0.0146,0.0928,0.0024,0.0366
0.0146,0.0024,0.0024,0.0024,0.0024,0.0024,0.0366,0.0903,0.0049,0.0415
0.0098,0.0024,0.0024,0.0024,0.0049,0.0024,0.0024,0.0635,0.0024,0.0684
0.061,0.0024,0.0049,0.0024,0.0024,0.0024,0.0952,0.1855,0.0024,0.0684
0.0464,0.0024,0.0024,0.0024,0.0024,0.0024,0.0879,0.1392,0.0024,0.0562
0.0464,0.0024,0.0024,0.0024,0.0024,0.0024,0.1001,0.1489,0.0024,0.061
0.0562,0.0024,0.0024,0.0024,0.0024,0.0024,0.1196,0.1611,0.0024,0.0391
0.0464,0.0024,0.0024,0.0024,0.0024,0.0024,0.0708,0.144,0.0024,0.0562
0.061,0.0024,0.0024,0.0024,0.0024,0.0024,0.0708,0.1465,0.0024,0.0342
0.0439,0.0024,0.0024,0.0024,0.0024,0.0024,0.0659,0.1392,0.0024,0.0317
0.0342,0.0024,0.0024,0.0024,0.0024,0.0024,0.0562,0.1001,0.0024,0.0488
0.0049,0.0024,0.0024,0.0024,0.0024,0.0024,0.0293,0.0854,0.0024,0.0562
0.0513,0.0024,0.0024,0.0024,0.0024,0.0024,0.0439,0.1099,0.0024,0.0488
0.0024,0.0024,0.0024,0.0024,0.0024,0.0024,0.0537,0.083,0.0024,0.0439
0.0391,0.0024,0.0024,0.0024,0.0024,0.0024,0.0562,0.1343,0.0146,0.0488
0.0269,0.0024,0.0024,0.0024,0.0024,0.0024,0.0415,0.1025,0.0024,0.0659
0.0366,0.0024,0.0024,0.0024,0.0024,0.0024,0.061,0.1709,0.0024,0.0464
0.0024,0.0024,0.0024,0.0024,0.0024,0.0024,0.0244,0.0928,0.0024,0.0439
0.0269,0.0024,0.0024,0.0024,0.0024,0.0024,0.0488,0.0806,0.0024,0.0732
0.0098,0.0024,0.0024,0.0024,0.0024,0.0024,0.0073,0.0708,0.0024,0.0537
0.0317,0.0024,0.0024,0.0024,0.0024,0.0024,0.0024,0.0684,0.0024,0.0513
0.0171,0.0024,0.0024,0.0024,0.0024,0.0024,0.0317,0.1147,0.0024,0.0513
0.0293,0.0024,0.0024,0.0024,0.0024,0.0024,0.0293,0.1001,0.0024,0.0464
0.0342,0.0024,0.0024,0.0024,0.0024,0.0024,0.0366,0.0928,0.0049,0.0513
0.0269,0.0024,0.0024,0.0024,0.0049,0.0024,0.022,0.0903,0.0024,0.0513
0.0024,0.0024,0.0024,0.0024,0.0024,0.0024,0.0195,0.0854,0.0024,0.0513
0.0098,0.0024,0.0024,0.0024,0.0024,0.0024,0.0317,0.1001,0.0024,0.0439
0.1318,0.0024,0.0781,0.0024,0.0024,0.0024,0.022,0.1831,0.0024,0.0439
0.1636,0.0024,0.0024,0.0024,0.0024,0.0024,0.0586,0.2344,0.0024,0.0708
0.1758,0.0024,0.0024,0.0024,0.0024,0.0024,0.0439,0.2271,0.0024,0.0562
0.3784,0.0195,0.1538,0.0098,0.0024,0.0024,0.0391,0.2734,0.0024,0.0537
0.2563,0.0024,0.0806,0.0098,0.0024,0.0024,0.0635,0.293,0.0024,0.0488
0.0098,0.0024,0.0024,0.0024,0.0024,0.0024,0.0098,0.1294,0.0024,0.0635
0.1147,0.0024,0.0024,0.0024,0.0024,0.0024,0.0293,0.1343,0.0024,0.0513
0.1392,0.0024,0.0024,0.0024,0.0024,0.0024,0.0073,0.1538,0.0024,0.0513
0.2246,0.0024,0.0024,0.0024,0.0024,0.0024,0.0366,0.2002,0.0024,0.061
0.1245,0.0024,0.0024,0.0024,0.0024,0.0024,0.0366,0.1392,0.0024,0.0537
0.0073,0.0024,0.0024,0.0024,0.0024,0.0024,0.0073,0.0977,0.0024,0.0366
0.0098,0.0024,0.0024,0.0024,0.0024,0.0024,0.0098,0.1025,0.0024,0.0391
0.0073,0.0024,0.0415,0.0024,0.0024,0.0024,0.0317,0.1343,0.0024,0.0464
0.0439,0.0024,0.166,0.0024,0.0024,0.0024,0.0024,0.1172,0.0049,0.0415
0.0195,0.0024,0.0024,0.0024,0.0024,0.0024,0.0024,0.0781,0.0024,0.0732
0.0024,0.0024,0.0024,0.0024,0.0024,0.0024,0.0024,0.1392,0.0024,0.0562
0.0024,0.0024,0.0024,0.0024,0.0024,0.0024,0.0024,0.1074,0.0024,0.0635
0.0049,0.0024,0.0024,0.0024,0.0024,0.0024,0.0024,0.1318,0.0024,0.0391
0.0024,0.0024,0.0464,0.0024,0.0024,0.0024,0.0024,0.061,0.0024,0.0415
0.0049,0.0024,0.0024,0.0024,0.0024,0.0024,0.0024,0.0293,0.0024,0.0415
0.1587,0.0024,0.0024,0.0024,0.0024,0.0024,0.1025,0.2441,0.0024,0.376
0.0024,0.0024,0.0024,0.0024,0.0024,0.0024,0.0317,0.1099,0.0024,0.0317
0.061,0.0024,0.0024,0.0049,0.0024,0.0024,0.0659,0.166,0.0024,0.0488
0.0928,0.0024,0.0024,0.0024,0.0024,0.0024,0.0464,0.1953,0.0024,0.0513
0.0269,0.0024,0.0439,0.0293,0.0024,0.0024,0.0562,0.1147,0.0171,0.0366
0.0024,0.0024,0.0024,0.0024,0.0024,0.0024,0.0146,0.0952,0.0024,0.0244
0.0024,0.0024,0.0024,0.0024,0.0049,0.0024,0.0146,0.061,0.0024,0.0244
0.0024,0.0024,0.0024,0.0024,0.0024,0.0024,0.0195,0.0757,0.0024,0.0342
0.0415,0.0024,0.0024,0.0024,0.0024,0.0024,0.0195,0.1514,0.0024,0.0488
0.0488,0.0024,0.0024,0.0024,0.0024,0.0024,0.0366,0.1514,0.0024,0.0391
0.0024,0.0024,0.0024,0.0024,0.0024,0.0024,0.0049,0.1196,0.0024,0.0415
0.022,0.0024,0.0024,0.0024,0.0024,0.0024,0.0146,0.1196,0.0024,0.0317
0.0049,0.0024,0.0024,0.0024,0.0024,0.0024,0.0049,0.0879,0.0024,0.0293
0.0024,0.0024,0.0024,0.0024,0.0024,0.0024,0.0098,0.0806,0.0024,0.0342
0.0024,0.0024,0.0024,0.0024,0.0024,0.0024,0.0122,0.0977,0.0024,0.0293
0.0024,0.0024,0.0024,0.0024,0.0049,0.0024,0.0024,0.0464,0.0024,0.0391
0.0024,0.0024,0.0024,0.0024,0.0024,0.0024,0.0073,0.0562,0.0024,0.0391
0.0049,0.0024,0.0049,0.0024,0.0024,0.0024,0.0635,0.0903,0.0024,0.0391
0.0024,0.0024,0.0024,0.0024,0.0024,0.0024,0.0366,0.061,0.0024,0.0415
0.0024,0.0024,0.0024,0.0024,0.0024,0.0024,0.0269,0.0513,0.0024,0.0317
0.0024,0.0024,0.0049,0.0024,0.0024,0.0024,0.0244,0.0488,0.0024,0.0244
0.0024,0.0024,0.0024,0.0024,0.0024,0.0024,0.0244,0.0635,0.0024,0.0391
0.0024,0.0024,0.0024,0.0024,0.0024,0.0024,0.0513,0.0732,0.0024,0.0342
0.0024,0.0024,0.0024,0.0024,0.0024,0.0024,0.0269,0.0708,0.0024,0.0391
0.0024,0.0024,0.0024,0.0024,0.0024,0.0024,0.0293,0.0952,0.0024,0.0439
0.0269,0.0024,0.0024,0.0024,0.0024,0.0024,0.0244,0.105,0.0024,0.0366
0.0024,0.0024,0.0024,0.0024,0.0024,0.0024,0.0293,0.1147,0.0024,0.0342
0.0049,0.0024,0.0024,0.0024,0.0024,0.0024,0.022,0.1196,0.0024,0.0317
0.022,0.0024,0.0024,0.0024,0.0024,0.0024,0.0415,0.0854,0.0024,0.0342
0.0854,0.0024,0.0024,0.0024,0.0024,0.0024,0.0195,0.1343,0.0024,0.0415
0.0806,0.0024,0.0024,0.0024,0.0024,0.0024,0.0513,0.1196,0.0024,0.0415
0.2295,0.0024,0.0024,0.0024,0.0024,0.0024,0.0293,0.1514,0.1416,0.0464
0.0732,0.0024,0.0024,0.0024,0.0024,0.0024,0.0586,0.1318,0.0024,0.0415
0.0659,0.0024,0.0024,0.0024,0.0024,0.0024,0.0171,0.144,0.0024,0.0562
0.0464,0.0024,0.0024,0.0024,0.0024,0.0024,0.022,0.1172,0.0024,0.0415
0.0366,0.0024,0.0024,0.0024,0.0024,0.0024,0.0684,0.1221,0.0024,0.0391
0.0244,0.0024,0.0024,0.0024,0.0024,0.0024,0.0586,0.1221,0.0024,0.0391
0.0146,0.0024,0.0024,0.0024,0.0024,0.0024,0.0635,0.0928,0.0024,0.0366
0.0024,0.0024,0.0024,0.0024,0.0024,0.0024,0.0708,0.105,0.0024,0.0366
0.0049,0.0024,0.0024,0.0024,0.0024,0.0024,0.0342,0.0708,0.0024,0.0537
0.0024,0.0024,0.0024,0.0024,0.0024,0.0024,0.0439,0.0659,0.0024,0.0439
0.0024,0.0024,0.0049,0.0024,0.0024,0.0024,0.0513,0.1196,0.0024,0.0366
0.0024,0.0024,0.0024,0.0024,0.0024,0.0024,0.0171,0.105,0.0024,0.0366
0.0049,0.0024,0.0024,0.0024,0.0024,0.0024,0.0098,0.0952,0.0024,0.0415
0.0024,0.0024,0.0049,0.0024,0.0049,0.0024,0.0049,0.0806,0.0024,0.0366
0.0073,0.0024,0.0024,0.0024,0.0024,0.0024,0.0024,0.0806,0.0024,0.0269
0.0024,0.0024,0.0024,0.0024,0.0024,0.0024,0.0098,0.0806,0.0024,0.0293
0.0024,0.0024,0.0024,0.0024,0.0024,0.0024,0.0122,0.1123,0.0024,0.0366
0.0049,0.0024,0.0024,0.0024,0.0024,0.0024,0.0244,0.1465,0.0024,0.0293
0.0024,0.0024,0.0024,0.0024,0.0024,0.0024,0.0024,0.0952,0.0024,0.0464
0.0024,0.0024,0.0049,0.0024,0.0024,0.0024,0.0049,0.1001,0.0024,0.0415
0.0195,0.0024,0.0024,0.0024,0.0024,0.0024,0.0049,0.0781,0.0024,0.0317
0.0024,0.0024,0.0024,0.0024,0.0024,0.0024,0.0049,0.105,0.0024,0.0293
0.0049,0.0024,0.0024,0.0024,0.0024,0.0024,0.0049,0.0952,0.0024,0.0342
0.0049,0.0024,0.0024,0.0024,0.0024,0.0024,0.0073,0.0635,0.0024,0.022
0.0024,0.0024,0.0024,0.0024,0.0049,0.0024,0.0024,0.0879,0.0024,0.0293
0.0024,0.0024,0.0024,0.0024,0.0049,0.0024,0.0024,0.1001,0.0024,0.0317
0.0024,0.0024,0.0024,0.0024,0.0024,0.0024,0.0903,0.1587,0.0024,0.0342
0.0024,0.0024,0.0024,0.0024,0.0024,0.0024,0.0879,0.1196,0.0024,0.0415
0.0024,0.0024,0.0024,0.0024,0.0024,0.0024,0.0391,0.0977,0.0024,0.0488
0.0024,0.0024,0.0024,0.0024,0.0024,0.0024,0.0464,0.1294,0.0024,0.0537
0.0073,0.0024,0.0024,0.0024,0.0024,0.0024,0.0366,0.1123,0.0024,0.0464
0.0024,0.0024,0.0024,0.0024,0.0024,0.0024,0.0317,0.1172,0.0024,0.0391
0.0073,0.0024,0.0024,0.0024,0.0024,0.0024,0.0415,0.1514,0.0024,0.0317
0.0024,0.0024,0.0024,0.0024,0.0049,0.0024,0.0342,0.1343,0.0024,0.0415
0.0464,0.0024,0.0024,0.0024,0.0024,0.0024,0.0342,0.1514,0.0024,0.0342
0.188,0.0024,0.0562,0.0488,0.0024,0.0024,0.0562,0.1367,0.0293,0.0439
0.0586,0.0024,0.0513,0.061,0.0024,0.0024,0.0854,0.1343,0.0024,0.0586
0.0391,0.0024,0.0024,0.022,0.0024,0.0024,0.061,0.1709,0.2588,0.0513
0.0122,0.0024,0.0024,0.0024,0.0024,0.0024,0.0488,0.1587,0.3076,0.0366
0.0024,0.0024,0.0024,0.0024,0.0024,0.0024,0.0171,0.1099,0.0024,0.0366
0.0024,0.0024,0.0024,0.0024,0.0024,0.0024,0.0195,0.1318,0.0024,0.0342
0.0244,0.0024,0.0024,0.0024,0.0024,0.0024,0.0708,0.2246,0.0024,0.0366
0.0195,0.0024,0.0024,0.0024,0.0024,0.0024,0.0659,0.21,0.0024,0.0342
0.0171,0.0024,0.0024,0.0024,0.0024,0.0024,0.0439,0.1709,0.0562,0.0366
0.0806,0.0024,0.0024,0.0024,0.0024,0.0024,0.0513,0.1636,0.0928,0.0342
0.1221,0.0024,0.0024,0.0024,0.0024,0.0024,0.0513,0.1953,0.2026,0.0439
0.0415,0.0024,0.0024,0.0024,0.0024,0.0024,0.0293,0.1733,0.0024,0.0366
0.0732,0.0024,0.0024,0.0024,0.0024,0.0024,0.022,0.1782,0.0024,0.0317
0.0586,0.0024,0.0024,0.0024,0.0024,0.0024,0.0513,0.1685,0.0024,0.0488
0.0171,0.0024,0.0024,0.0024,0.0024,0.0024,0.0488,0.1416,0.0024,0.0317
0.0195,0.0024,0.0024,0.0024,0.0024,0.0024,0.0171,0.0952,0.0024,0.0439
0.0073,0.0024,0.0024,0.0024,0.0049,0.0024,0.0244,0.105,0.0024,0.0439
0.0024,0.0024,0.0024,0.0024,0.0024,0.0024,0.0146,0.0806,0.0024,0.0366
0.0024,0.0024,0.0024,0.0024,0.0024,0.0024,0.0049,0.0757,0.0024,0.0464
0.0049,0.0024,0.0024,0.0024,0.0024,0.0024,0.0049,0.1416,0.0024,0.0366
0.0073,0.0024,0.0024,0.0122,0.0024,0.0024,0.0024,0.1318,0.0024,0.0366
0.0098,0.0024,0.0024,0.0073,0.0024,0.0024,0.0098,0.127,0.0024,0.0464
0.0244,0.0024,0.0024,0.0024,0.0024,0.0024,0.0171,0.1636,0.0024,0.0439
0.0024,0.0024,0.0024,0.0024,0.0024,0.0024,0.0293,0.1465,0.0024,0.0415
0.0024,0.0024,0.0024,0.0024,0.0049,0.0024,0.022,0.144,0.0024,0.0537
0.0024,0.0024,0.0024,0.0024,0.0024,0.0024,0.0146,0.1318,0.0024,0.0366
0.0098,0.0024,0.0024,0.0024,0.0024,0.0024,0.022,0.1514,0.0024,0.0415
0.0146,0.0024,0.0024,0.0024,0.0073,0.0024,0.0366,0.166,0.0024,0.0488
0.0024,0.0024,0.0024,0.0024,0.0049,0.0024,0.0049,0.1001,0.0024,0.0317
0.0024,0.0024,0.0024,0.0024,0.0024,0.0024,0.0073,0.0806,0.0024,0.0439
0.0024,0.0024,0.0024,0.0024,0.0049,0.0024,0.0024,0.1099,0.0024,0.022
0.0049,0.0024,0.0024,0.0024,0.0024,0.0024,0.0024,0.1196,0.0024,0.0366
0.0024,0.0024,0.0024,0.0024,0.0024,0.0024,0.0122,0.1245,0.0024,0.0342
0.0073,0.0024,0.0024,0.0024,0.0024,0.0024,0.0293,0.1196,0.0024,0.0366
0.0171,0.0024,0.0024,0.0024,0.0024,0.0024,0.0269,0.1099,0.0024,0.0366
0.0024,0.0024,0.0049,0.0024,0.0024,0.0024,0.0146,0.1416,0.0024,0.0415
0.0024,0.0024,0.0024,0.0024,0.0024,0.0024,0.0122,0.1001,0.0024,0.0269
0.0171,0.0024,0.0049,0.0024,0.0024,0.0024,0.0195,0.1343,0.0024,0.0415
0.0269,0.0024,0.0024,0.0024,0.0024,0.0024,0.0171,0.1587,0.0024,0.0513
0.0513,0.0024,0.0024,0.0024,0.0024,0.0024,0.022,0.1196,0.0024,0.0342
0.0317,0.0024,0.0024,0.0024,0.0024,0.0024,0.0146,0.1123,0.0024,0.0342
0.0293,0.0024,0.0024,0.0024,0.0024,0.0024,0.0146,0.1318,0.0024,0.0391
0.0464,0.0024,0.0024,0.0024,0.0024,0.0024,0.0195,0.1538,0.0024,0.0342
0.022,0.0024,0.0024,0.0024,0.0024,0.0024,0.0122,0.1099,0.0024,0.0269
0.0171,0.0024,0.0024,0.0024,0.0024,0.0024,0.0415,0.1563,0.0024,0.0317
0.0317,0.0024,0.0024,0.0024,0.0024,0.0024,0.0342,0.1514,0.0024,0.0464
0.0244,0.0024,0.0024,0.0024,0.0024,0.0024,0.0146,0.1392,0.0024,0.0342
0.0073,0.0024,0.0024,0.0024,0.0024,0.0024,0.022,0.1538,0.0024,0.0464
0.0171,0.0024,0.0024,0.0024,0.0024,0.0024,0.022,0.1245,0.0024,0.0391
0.0049,0.0024,0.0024,0.0024,0.0024,0.0024,0.0024,0.1025,0.0024,0.0464
0.0098,0.0024,0.0024,0.0024,0.0024,0.0024,0.0293,0.1172,0.0024,0.0562
0.0122,0.0024,0.0024,0.0024,0.0024,0.0024,0.0146,0.0879,0.0024,0.0464
0.0317,0.0024,0.0024,0.0024,0.0024,0.0024,0.0122,0.0928,0.0024,0.0391
0.0098,0.0024,0.0024,0.0024,0.0024,0.0024,0.0049,0.0757,0.0024,0.0415
0.0073,0.0024,0.0024,0.0024,0.0024,0.0024,0.0024,0.1074,0.0024,0.0415
0.0195,0.0024,0.0024,0.0024,0.0024,0.0024,0.0195,0.144,0.0024,0.0488
0.0195,0.0024,0.0024,0.0024,0.0024,0.0024,0.0122,0.1367,0.0024,0.0269
0.0122,0.0024,0.0024,0.0024,0.0024,0.0024,0.0122,0.1123,0.0024,0.0293
0.0562,0.0024,0.0024,0.0024,0.0024,0.0024,0.022,0.1343,0.0024,0.0342
0.0024,0.0024,0.0024,0.0024,0.0024,0.0024,0.0049,0.1147,0.0024,0.0146
0.0073,0.0024,0.0024,0.0024,0.0024,0.0024,0.0049,0.1392,0.0024,0.0171
0.0024,0.0024,0.0024,0.0024,0.0024,0.0024,0.0122,0.1343,0.0024,0.0415
0.0049,0.0024,0.0024,0.0024,0.0024,0.0024,0.0024,0.0659,0.0024,0.0244
0.0024,0.0024,0.0024,0.0024,0.0024,0.0024,0.0195,0.0708,0.0024,0.0342
0.0073,0.0024,0.0024,0.0024,0.0024,0.0024,0.0269,0.0977,0.0024,0.0366
0.0122,0.0024,0.0024,0.0024,0.0024,0.0024,0.0269,0.1538,0.0024,0.0317
0.0049,0.0024,0.0024,0.0024,0.0024,0.0024,0.0244,0.1025,0.0024,0.0293
0.0024,0.0049,0.0024,0.0024,0.0024,0.0024,0.0122,0.0928,0.0024,0.0366
0.0098,0.0024,0.0024,0.0024,0.0024,0.0024,0.0098,0.1245,0.0024,0.0391
0.0024,0.0024,0.0024,0.0024,0.0024,0.0024,0.0171,0.127,0.0024,0.0269
0.0195,0.0024,0.0024,0.0024,0.0024,0.0024,0.061,0.2051,0.0024,0.0415
0.0098,0.0024,0.0024,0.0024,0.0024,0.0024,0.0659,0.1318,0.0024,0.0317
0.0024,0.0024,0.0024,0.0024,0.0049,0.0024,0.0269,0.1147,0.0024,0.0293
0.0122,0.0024,0.0024,0.0024,0.0024,0.0024,0.0537,0.1611,0.0024,0.022
0.0024,0.0024,0.0024,0.0024,0.0024,0.0024,0.0293,0.1099,0.0024,0.0415
0.0781,0.0024,0.0024,0.0024,0.0024,0.0024,0.0391,0.1685,0.0024,0.0439
0.0684,0.0024,0.0024,0.0024,0.0024,0.0024,0.0635,0.1929,0.0073,0.0269
0.1831,0.0024,0.0024,0.0024,0.0024,0.0024,0.0439,0.2197,0.0146,0.0342
0.0293,0.0024,0.0024,0.0024,0.0024,0.0024,0.022,0.1318,0.0024,0.0293
0.144,0.0024,0.0024,0.0024,0.0024,0.0024,0.0464,0.1514,0.0024,0.0342
0.1001,0.0024,0.0024,0.0024,0.0024,0.0024,0.061,0.1343,0.0024,0.0391
0.166,0.0024,0.0024,0.0024,0.0024,0.0024,0.0659,0.1465,0.0024,0.0342
0.1221,0.0024,0.0024,0.0024,0.0024,0.0049,0.0415,0.1318,0.0024,0.0366
0.1489,0.0024,0.0024,0.0024,0.0024,0.0024,0.0806,0.1685,0.0024,0.0391
0.0269,0.0024,0.0024,0.0024,0.0024,0.0024,0.0488,0.1343,0.0024,0.0317
0.0366,0.0024,0.0024,0.0024,0.0024,0.0024,0.022,0.0928,0.0024,0.0293
0.0366,0.0024,0.0024,0.0024,0.0024,0.0024,0.0366,0.1001,0.0024,0.0391
0.0024,0.0024,0.0024,0.0024,0.0024,0.0024,0.0464,0.1074,0.0024,0.0244
0.0024,0.0024,0.0024,0.0024,0.0024,0.0024,0.0854,0.1196,0.0024,0.0244
0.0024,0.0024,0.0024,0.0024,0.0024,0.0024,0.0513,0.0854,0.0024,0.0244
0.0073,0.0024,0.0024,0.0024,0.0024,0.0024,0.0366,0.083,0.0024,0.0195
0.0024,0.0024,0.0024,0.0024,0.0024,0.0024,0.0073,0.0952,0.0024,0.0171
0.0024,0.0024,0.0024,0.0024,0.0024,0.0024,0.0195,0.0854,0.0024,0.0342
0.0024,0.0024,0.0024,0.0024,0.0024,0.0024,0.0146,0.0757,0.0024,0.0342
0.0024,0.0024,0.0024,0.0024,0.0024,0.0024,0.0195,0.105,0.0024,0.0244
0.0024,0.0024,0.0024,0.0024,0.0024,0.0024,0.0317,0.0977,0.0024,0.0415
0.0024,0.0024,0.0024,0.0049,0.0024,0.0024,0.0073,0.0513,0.0024,0.0317
0.0024,0.0024,0.0024,0.0024,0.0024,0.0024,0.0098,0.0732,0.0024,0.0317
0.0073,0.0024,0.0024,0.0024,0.0024,0.0024,0.0464,0.0977,0.0024,0.0366
0.0024,0.0024,0.0024,0.0024,0.0024,0.0024,0.0269,0.0879,0.0024,0.0317
0.0049,0.0024,0.0024,0.0024,0.0024,0.0024,0.0317,0.0903,0.0024,0.0366
0.0073,0.0024,0.0024,0.0024,0.0024,0.0024,0.0342,0.0977,0.0024,0.0317
0.0049,0.0024,0.0049,0.0024,0.0024,0.0024,0.0391,0.0781,0.0024,0.0293
0.0024,0.0024,0.0024,0.0024,0.0024,0.0024,0.0488,0.1001,0.0024,0.0366
0.0024,0.0024,0.0024,0.0024,0.0024,0.0024,0.0366,0.1514,0.0024,0.022
0.0024,0.0024,0.0024,0.0024,0.0024,0.0024,0.0391,0.1001,0.0024,0.0122
0.0073,0.0024,0.0024,0.0024,0.0024,0.0024,0.0049,0.1123,0.0024,0.0317
0.0049,0.0024,0.0024,0.0024,0.0024,0.0024,0.0098,0.0928,0.0024,0.0317
0.0024,0.0024,0.0024,0.0024,0.0024,0.0024,0.0073,0.1025,0.0024,0.0244
0.0024,0.0024,0.0024,0.0024,0.0024,0.0024,0.0415,0.0757,0.0024,0.0269
0.0024,0.0024,0.0024,0.0024,0.0024,0.0024,0.0098,0.0757,0.0024,0.0171
0.0024,0.0024,0.0024,0.0024,0.0024,0.0024,0.0098,0.0684,0.0024,0.0244
0.0024,0.0024,0.0024,0.0024,0.0024,0.0024,0.0464,0.1318,0.0024,0.0342
0.0024,0.0024,0.0024,0.0024,0.0024,0.0024,0.0513,0.1074,0.0024,0.0269
0.0024,0.0024,0.0024,0.0024,0.0024,0.0024,0.0366,0.0879,0.0024,0.0342
0.0024,0.0024,0.0024,0.0024,0.0024,0.0024,0.0586,0.1025,0.0024,0.0342
0.0024,0.0024,0.0024,0.0024,0.0024,0.0024,0.0586,0.1318,0.0024,0.0269
0.0024,0.0024,0.0024,0.0024,0.0049,0.0024,0.0537,0.1001,0.0024,0.0317
0.0024,0.0024,0.0024,0.0024,0.0024,0.0024,0.0391,0.0879,0.0024,0.0244
0.0024,0.0024,0.0024,0.0024,0.0049,0.0024,0.0317,0.0806,0.0024,0.0293
0.0024,0.0024,0.0024,0.0024,0.0049,0.0024,0.0464,0.061,0.0024,0.0342
0.0146,0.0024,0.0024,0.0024,0.0024,0.0024,0.105,0.1465,0.0024,0.0122
0.0024,0.0024,0.0024,0.0024,0.0024,0.0024,0.0708,0.144,0.0024,0.0244
0.0049,0.0024,0.0024,0.0024,0.0024,0.0024,0.0195,0.1147,0.0024,0.022
0.0024,0.0024,0.0024,0.0024,0.0024,0.0024,0.0464,0.1147,0.0024,0.0342
0.0024,0.0024,0.0024,0.0024,0.0024,0.0024,0.0269,0.1123,0.0024,0.0269
0.0024,0.0024,0.0024,0.0024,0.0024,0.0024,0.0244,0.083,0.0024,0.0269
0.0024,0.0024,0.0024,0.0049,0.0024,0.0024,0.022,0.0732,0.0024,0.0146
0.0024,0.0024,0.0024,0.0024,0.0024,0.0024,0.0195,0.0952,0.0024,0.0269
0.0073,0.0024,0.0024,0.0024,0.0024,0.0024,0.0269,0.0903,0.0024,0.0244
0.0024,0.0024,0.0024,0.0024,0.0024,0.0024,0.0391,0.0977,0.0024,0.022
0.0024,0.0024,0.0024,0.0024,0.0024,0.0024,0.0366,0.0806,0.0024,0.0195
0.0122,0.0024,0.0024,0.0024,0.0024,0.0024,0.0562,0.1123,0.0024,0.022
0.0024,0.0024,0.0024,0.0024,0.0024,0.0024,0.0513,0.1416,0.0024,0.0244
0.0024,0.0024,0.0024,0.0024,0.0024,0.0024,0.0269,0.105,0.0024,0.022
0.0024,0.0024,0.0024,0.0024,0.0049,0.0024,0.0195,0.1172,0.0024,0.0098
0.0024,0.0024,0.0024,0.0024,0.0024,0.0024,0.0171,0.1025,0.0024,0.0146
0.0024,0.0024,0.0024,0.0024,0.0024,0.0024,0.0195,0.127,0.0024,0.022
0.0024,0.0024,0.0049,0.0024,0.0024,0.0024,0.0317,0.0806,0.0024,0.0098
0.0024,0.0024,0.0024,0.0024,0.0024,0.0024,0.0317,0.0977,0.0024,0.0098
0.0024,0.0024,0.0024,0.0024,0.0024,0.0024,0.0342,0.1099,0.0024,0.0146
0.0195,0.0024,0.0024,0.0024,0.0024,0.0024,0.0562,0.1196,0.0024,0.0342
0.0171,0.0024,0.0024,0.0024,0.0024,0.0024,0.0195,0.1294,0.0024,0.022
0.0024,0.0024,0.0024,0.0024,0.0024,0.0024,0.0146,0.0537,0.0024,0.0269
0.0024,0.0024,0.0024,0.0024,0.0024,0.0024,0.0122,0.0562,0.0024,0.0317
0.0024,0.0024,0.0049,0.0024,0.0024,0.0024,0.0024,0.0635,0.0024,0.0171
0.0024,0.0024,0.0024,0.0024,0.0049,0.0024,0.0439,0.083,0.0024,0.0195
0.0024,0.0024,0.0024,0.0024,0.0024,0.0024,0.022,0.0708,0.0024,0.0244
0.0024,0.0024,0.0024,0.0024,0.0024,0.0024,0.0293,0.1123,0.0024,0.0171
0.0024,0.0024,0.0024,0.0024,0.0024,0.0024,0.0537,0.1318,0.0024,0.0024
0.0024,0.0024,0.0024,0.0024,0.0024,0.0024,0.0293,0.1074,0.0024,0.0146
0.0098,0.0024,0.0049,0.0024,0.0024,0.0024,0.0854,0.1611,0.0024,0.0269
0.0073,0.0024,0.0024,0.0024,0.0024,0.0024,0.0342,0.1416,0.0024,0.0195
0.0024,0.0024,0.0024,0.0024,0.0024,0.0024,0.0146,0.0708,0.0024,0.0293
0.0024,0.0024,0.0024,0.0024,0.0024,0.0024,0.0269,0.1294,0.0024,0.0317
0.0024,0.0024,0.0024,0.0024,0.0024,0.0024,0.022,0.1343,0.0024,0.0195
0.0024,0.0024,0.0024,0.0024,0.0024,0.0024,0.0488,0.144,0.0024,0.022
0.0073,0.0024,0.0024,0.0024,0.0024,0.0024,0.0366,0.1074,0.0024,0.0317
0.0073,0.0024,0.0024,0.0024,0.0024,0.0024,0.0488,0.0854,0.0024,0.0244
0.0073,0.0024,0.0024,0.0024,0.0024,0.0024,0.0464,0.1489,0.0024,0.0244
0.0024,0.0024,0.0024,0.0024,0.0562,0.0464,0.083,0.0781,0.0024,0.0293
0.0024,0.0024,0.0024,0.0146,0.0513,0.0464,0.0928,0.0708,0.0439,0.105
0.0049,0.0122,0.0317,0.0513,0.0195,0.0024,0.1001,0.1172,0.0586,0.0684
0.0562,0.0049,0.0171,0.0244,0.0049,0.0024,0.1831,0.1855,0.0439,0.0488
0.0586,0.0024,0.0024,0.0024,0.0024,0.0024,0.0635,0.1538,0.0049,0.0708
0.0464,0.0024,0.0024,0.0024,0.0024,0.0024,0.0757,0.1074,0.0098,0.0439
0.0439,0.0024,0.0024,0.0024,0.0024,0.0024,0.0659,0.0928,0.0024,0.0366
0.21,0.0024,0.0024,0.0024,0.0024,0.0024,0.0562,0.1758,0.0024,0.0537
0.1538,0.0024,0.0024,0.0024,0.0024,0.0024,0.0317,0.144,0.0024,0.0415
0.1611,0.0024,0.0024,0.0024,0.0024,0.0024,0.0513,0.2051,0.0024,0.0366
0.0854,0.0024,0.0024,0.0024,0.0024,0.0024,0.0586,0.1416,0.0024,0.0513
0.1099,0.0024,0.0024,0.0024,0.0024,0.0024,0.0366,0.1196,0.0024,0.0415
0.1343,0.0024,0.0024,0.0024,0.0024,0.0024,0.0269,0.1147,0.0024,0.0488
0.1001,0.0024,0.0024,0.0024,0.0024,0.0024,0.0366,0.1392,0.0024,0.0488
0.1416,0.0024,0.0024,0.0024,0.0024,0.0024,0.0562,0.144,0.0024,0.0488
0.0708,0.0024,0.0024,0.0024,0.0049,0.0024,0.0439,0.0757,0.0024,0.0391
0.022,0.0024,0.0024,0.0024,0.0024,0.0024,0.0244,0.1099,0.0024,0.0415
0.1099,0.0024,0.0024,0.0024,0.0024,0.0024,0.0269,0.1831,0.0073,0.0879
0.0488,0.0024,0.0024,0.0024,0.0024,0.0024,0.0024,0.0854,0.0024,0.0537
0.0122,0.0024,0.0024,0.0024,0.0024,0.0024,0.0024,0.0415,0.0024,0.0366
0.0269,0.0024,0.0024,0.0024,0.0024,0.0024,0.0049,0.0464,0.0024,0.0562
0.0024,0.0024,0.0024,0.0024,0.0024,0.0024,0.0122,0.0415,0.0024,0.0464
0.0195,0.0024,0.0024,0.0024,0.0024,0.0024,0.0098,0.0513,0.0024,0.0464
0.1025,0.0024,0.0024,0.0024,0.0024,0.0024,0.0024,0.0659,0.0317,0.0708
0.0049,0.0024,0.0024,0.0024,0.0049,0.0024,0.0024,0.0366,0.0293,0.0488
0.022,0.0024,0.0024,0.0024,0.0024,0.0024,0.0024,0.0073,0.0293,0.0464
0.0269,0.0024,0.0024,0.0024,0.0024,0.0024,0.0024,0.0195,0.0146,0.0366
0.0391,0.0024,0.0024,0.0024,0.0024,0.0024,0.0024,0.0244,0.022,0.0659
0.022,0.0024,0.0024,0.0024,0.0024,0.0024,0.0024,0.0439,0.0317,0.0537
0.0122,0.0024,0.0024,0.0024,0.0024,0.0024,0.0024,0.0122,0.0415,0.0537
0.0122,0.0024,0.0024,0.0024,0.0024,0.0024,0.0024,0.0146,0.0122,0.0586
0.0073,0.0024,0.0024,0.0024,0.0024,0.0024,0.0024,0.0073,0.0171,0.0293
0.0024,0.0024,0.0122,0.0024,0.0024,0.0024,0.0024,0.0073,0.0098,0.0366
0.0049,0.0024,0.0024,0.0024,0.0024,0.0024,0.0024,0.0146,0.0171,0.0562
0.0024,0.0024,0.0024,0.0024,0.0024,0.0024,0.0024,0.0098,0.0317,0.0562
0.0049,0.0024,0.0024,0.0024,0.0024,0.0024,0.0024,0.0049,0.0195,0.061
0.0098,0.0024,0.0049,0.0024,0.0024,0.0024,0.0024,0.0024,0.0122,0.0513
0.0244,0.0024,0.0024,0.0024,0.0024,0.0024,0.0024,0.0293,0.0146,0.0464
0.0049,0.0024,0.0024,0.0024,0.0024,0.0024,0.0024,0.0122,0.0244,0.0562
0.0024,0.0024,0.0024,0.0024,0.0024,0.0024,0.0024,0.0098,0.0269,0.0562
0.0024,0.0024,0.0024,0.0024,0.0024,0.0024,0.0024,0.0098,0.0244,0.0586
0.0024,0.0024,0.0024,0.0024,0.0024,0.0024,0.0024,0.0049,0.0171,0.0513
0.0098,0.0024,0.0024,0.0024,0.0024,0.0024,0.0024,0.0098,0.0098,0.061
0.0488,0.0024,0.0024,0.0024,0.0024,0.0024,0.0195,0.1099,0.0317,0.0537
0.0342,0.0024,0.0024,0.0024,0.0024,0.0024,0.0073,0.0513,0.0269,0.0562
0.0024,0.0024,0.0024,0.0024,0.0024,0.0024,0.0024,0.0464,0.0146,0.0415
0.0024,0.0024,0.0024,0.0024,0.0024,0.0024,0.0024,0.0415,0.022,0.061
0.0098,0.0024,0.0024,0.0024,0.0024,0.0024,0.0024,0.022,0.0146,0.0537
0.0146,0.0024,0.0073,0.0024,0.0024,0.0024,0.0024,0.0488,0.0024,0.0513
0.0317,0.0024,0.0146,0.0024,0.0024,0.0024,0.0024,0.0415,0.0024,0.0586
0.0049,0.0024,0.0024,0.0024,0.0024,0.0024,0.0024,0.0366,0.0049,0.0635
0.0098,0.0024,0.0146,0.0024,0.0049,0.0024,0.0049,0.0391,0.0098,0.0488
0.0024,0.0024,0.0122,0.0024,0.0024,0.0024,0.0024,0.0391,0.0049,0.0562
0.0049,0.0024,0.0024,0.0024,0.0024,0.0024,0.0024,0.0439,0.0098,0.0586
0.0879,0.0024,0.0024,0.0024,0.0024,0.0024,0.0562,0.1587,0.0391,0.0684
0.0537,0.0024,0.0024,0.0024,0.0024,0.0024,0.0098,0.0781,0.0293,0.0562
0.0659,0.0024,0.0024,0.0024,0.0024,0.0024,0.0342,0.083,0.0244,0.061
0.061,0.0024,0.0024,0.0024,0.0024,0.0024,0.0024,0.0659,0.0098,0.0415
0.0195,0.0024,0.0024,0.0024,0.0024,0.0024,0.0024,0.0464,0.0171,0.0488
0.0464,0.0024,0.0024,0.0024,0.0049,0.0024,0.0024,0.0488,0.0195,0.0488
0.0513,0.0024,0.0024,0.0024,0.0024,0.0024,0.0024,0.0659,0.0269,0.0464
0.0464,0.0024,0.0049,0.0024,0.0024,0.0024,0.0024,0.061,0.0073,0.0586
0.0537,0.0024,0.0024,0.0024,0.0024,0.0024,0.0024,0.0537,0.0024,0.0464
0.0024,0.0024,0.0049,0.0024,0.0024,0.0024,0.0024,0.0537,0.0049,0.0537
0.0073,0.0024,0.0024,0.0024,0.0024,0.0024,0.0049,0.0122,0.0366,0.0488
0.0195,0.0024,0.0024,0.0024,0.0024,0.0024,0.0024,0.0171,0.0293,0.061
0.0024,0.0024,0.0024,0.0024,0.0024,0.0024,0.0024,0.0122,0.0342,0.0513
0.0024,0.0024,0.0024,0.0024,0.0024,0.0024,0.0024,0.0098,0.0244,0.0488
0.0024,0.0024,0.0024,0.0024,0.0024,0.0024,0.0024,0.0195,0.0171,0.0537
0.0024,0.0024,0.0024,0.0024,0.0024,0.0024,0.0024,0.0244,0.0146,0.0488
0.0171,0.0024,0.0024,0.0024,0.0049,0.0024,0.0024,0.0366,0.0269,0.0415
0.0317,0.0024,0.0024,0.0024,0.0024,0.0024,0.0049,0.0366,0.0171,0.0562
0.0024,0.0024,0.0024,0.0024,0.0024,0.0024,0.0024,0.0146,0.022,0.0415
0.0366,0.0024,0.0098,0.0024,0.0024,0.0024,0.0415,0.127,0.0415,0.0732
0.0293,0.0024,0.0171,0.0024,0.0024,0.0024,0.0244,0.1099,0.0415,0.0659
0.1245,0.0024,0.0024,0.0024,0.0024,0.0024,0.0024,0.0562,0.0293,0.0659
0.0342,0.0024,0.0024,0.0024,0.0024,0.0024,0.0024,0.0537,0.0146,0.0586
0.0024,0.0024,0.0024,0.0024,0.0024,0.0024,0.0024,0.0488,0.022,0.0562
0.0439,0.0024,0.0024,0.0024,0.0024,0.0024,0.0049,0.0439,0.0293,0.083
0.0024,0.0024,0.0024,0.0024,0.0024,0.0024,0.0024,0.0366,0.0122,0.0562
0.0122,0.0024,0.0024,0.0024,0.0024,0.0024,0.0073,0.0464,0.0195,0.0635
0.0049,0.0024,0.0024,0.0024,0.0024,0.0024,0.0024,0.0537,0.0098,0.0757
0.0269,0.0024,0.0049,0.0024,0.0024,0.0024,0.0024,0.0293,0.0171,0.0562
0.0122,0.0024,0.0049,0.0024,0.0024,0.0024,0.0024,0.0293,0.0098,0.0513
0.0024,0.0024,0.0049,0.0024,0.0024,0.0024,0.0024,0.0415,0.0293,0.0659
0.0317,0.0024,0.0024,0.0024,0.0024,0.0024,0.0073,0.0684,0.0098,0.0562
0.022,0.0024,0.0024,0.0024,0.0024,0.0024,0.0293,0.1123,0.1123,0.0854
0.0244,0.0024,0.0024,0.0024,0.0024,0.0024,0.0024,0.0439,0.0684,0.0732
0.0024,0.0024,0.0024,0.0024,0.0024,0.0024,0.0024,0.0464,0.0537,0.0537
0.0024,0.0024,0.0024,0.0024,0.0024,0.0024,0.0024,0.0244,0.0415,0.0488
0.0024,0.0024,0.0024,0.0024,0.0024,0.0024,0.0024,0.0317,0.0366,0.0659
0.0928,0.0024,0.0073,0.0024,0.0024,0.0024,0.0757,0.1831,0.0952,0.1636
0.0024,0.0024,0.0659,0.0024,0.0024,0.0024,0.0024,0.0269,0.0513,0.0635
0.0098,0.0024,0.0757,0.0024,0.0049,0.0024,0.0195,0.0684,0.0342,0.0537
0.0098,0.0024,0.0073,0.0024,0.0024,0.0024,0.0098,0.0464,0.0464,0.0903
0.0024,0.0024,0.0024,0.0024,0.0024,0.0024,0.0146,0.0146,0.0342,0.0488
0.0024,0.0024,0.0024,0.0024,0.0049,0.0024,0.0049,0.022,0.0366,0.0513
0.0146,0.0024,0.0806,0.0024,0.0024,0.0024,0.0073,0.0415,0.0415,0.0562
0.0244,0.0024,0.1465,0.0024,0.0024,0.0024,0.0024,0.0366,0.0293,0.0684
0.0293,0.0024,0.1465,0.0024,0.0024,0.0024,0.0049,0.0317,0.0293,0.061
0.0024,0.0024,0.0024,0.0024,0.0024,0.0024,0.0024,0.0513,0.0464,0.0586
0.0171,0.0024,0.0024,0.0024,0.0024,0.0024,0.0024,0.0488,0.0342,0.0708
0.0073,0.0024,0.0049,0.0024,0.0024,0.0024,0.0024,0.0366,0.0244,0.0635
0.0171,0.0024,0.1587,0.0024,0.0024,0.0024,0.0024,0.0146,0.0317,0.0659
0.0122,0.0024,0.0269,0.0024,0.0024,0.0024,0.0024,0.0342,0.0244,0.0635
0.0049,0.0024,0.0024,0.0024,0.0049,0.0024,0.0024,0.0171,0.0244,0.0366
0.0098,0.0024,0.0146,0.0024,0.0024,0.0024,0.0073,0.022,0.0342,0.0488
0.0024,0.0024,0.0317,0.0024,0.0024,0.0024,0.0024,0.0098,0.0244,0.0562
0.0073,0.0024,0.0024,0.0024,0.0024,0.0024,0.0024,0.0439,0.0171,0.0439
0.022,0.0024,0.0024,0.0024,0.0024,0.0024,0.0122,0.0464,0.0171,0.0806
0.0024,0.0024,0.0024,0.0024,0.0024,0.0024,0.0244,0.0586,0.0269,0.0659
0.0024,0.0024,0.0024,0.0024,0.0049,0.0024,0.0098,0.0244,0.0293,0.0928
0.0439,0.0024,0.0024,0.0024,0.0024,0.0024,0.0269,0.0757,0.0171,0.0537
0.0122,0.0024,0.0024,0.0024,0.0024,0.0024,0.0244,0.0562,0.0293,0.061
0.0073,0.0024,0.0024,0.0024,0.0024,0.0024,0.0342,0.0439,0.0244,0.0537
0.0098,0.0024,0.0024,0.0024,0.0024,0.0024,0.0269,0.0806,0.0146,0.0513
0.0269,0.0024,0.0024,0.0024,0.0024,0.0024,0.022,0.0684,0.0122,0.0586
0.0171,0.0024,0.0024,0.0024,0.0024,0.0024,0.0269,0.0562,0.0073,0.0708
0.0098,0.0024,0.0024,0.0024,0.0024,0.0024,0.0171,0.0464,0.0122,0.0635
0.0073,0.0024,0.0024,0.0024,0.0049,0.0024,0.0342,0.0757,0.0146,0.0659
0.0171,0.0024,0.0024,0.0024,0.0024,0.0024,0.0293,0.0537,0.0098,0.0635
0.0244,0.0024,0.0024,0.0024,0.0024,0.0024,0.0269,0.0659,0.0024,0.0586
0.0366,0.0024,0.0024,0.0024,0.0024,0.0024,0.0244,0.0854,0.0098,0.0562
0.0439,0.0024,0.0024,0.0024,0.0024,0.0024,0.0195,0.0659,0.0171,0.0684
0.0195,0.022,0.0024,0.0024,0.0024,0.0024,0.0024,0.0513,0.1343,0.0903
0.0122,0.022,0.1392,0.0024,0.0024,0.0024,0.0024,0.083,0.6958,0.1367
0.0024,0.0024,0.2368,0.0024,0.0024,0.0024,0.0024,0.061,0.8325,0.0415
0.0024,0.0024,0.1367,0.0024,0.0024,0.0049,0.0024,0.0708,0.5444,0.0464
0.0024,0.0024,0.105,0.0024,0.0024,0.0024,0.0024,0.061,0.4541,0.0464
0.0024,0.0024,0.1563,0.0024,0.0024,0.0024,0.0024,0.0146,0.1123,0.0366
0.0146,0.0024,0.1318,0.0024,0.0024,0.0024,0.0024,0.0952,0.0391,0.0513
0.0024,0.0024,0.0024,0.0024,0.0024,0.0024,0.0024,0.061,0.0098,0.0415
0.0024,0.0024,0.0024,0.0024,0.0024,0.0024,0.0024,0.0586,0.0269,0.0415
0.0073,0.0024,0.0024,0.0024,0.0024,0.0024,0.0024,0.0488,0.0171,0.0488
0.0024,0.0317,0.0024,0.0024,0.0024,0.0024,0.0024,0.0293,0.0195,0.0415
0.0024,0.0024,0.0024,0.0024,0.0024,0.0024,0.0024,0.0195,0.0098,0.0415
0.0098,0.0024,0.0024,0.0024,0.0024,0.0024,0.0171,0.1538,0.0146,0.0586
0.0098,0.0024,0.0024,0.0024,0.0024,0.0024,0.0073,0.1294,0.022,0.0684
0.0122,0.0024,0.0024,0.0024,0.0024,0.0024,0.0098,0.1099,0.0122,0.0439
0.0024,0.0024,0.0024,0.0024,0.0024,0.0024,0.0024,0.0928,0.0098,0.0586
0.1514,0.0024,0.0024,0.0024,0.0024,0.0024,0.0024,0.1074,0.061,0.061
0.0806,0.0024,0.0024,0.0024,0.0024,0.0024,0.0122,0.1001,0.0049,0.0366
0.0171,0.0024,0.0024,0.0024,0.0024,0.0024,0.0195,0.0806,0.0073,0.0391
0.0146,0.0024,0.0024,0.0024,0.0024,0.0024,0.0098,0.0781,0.0024,0.0366
0.0098,0.0024,0.0024,0.0024,0.0024,0.0024,0.0098,0.0903,0.0073,0.0586
0.0244,0.0024,0.0024,0.0024,0.0024,0.0024,0.0073,0.0952,0.0073,0.0537
0.0342,0.0024,0.0024,0.0024,0.0024,0.0024,0.0024,0.1099,0.0098,0.0488
0.0342,0.0024,0.0024,0.0024,0.0024,0.0024,0.0024,0.1001,0.0073,0.0488
0.1733,0.0024,0.0024,0.0024,0.0024,0.0024,0.0244,0.2271,0.1953,0.1172
0.1367,0.0024,0.0049,0.0024,0.0024,0.0024,0.0171,0.1733,0.0171,0.0757
0.0488,0.0024,0.0024,0.0024,0.0024,0.0024,0.0024,0.1001,0.0122,0.0586
0.0049,0.0024,0.0049,0.0024,0.0024,0.0024,0.0024,0.0562,0.0024,0.0562
0.0244,0.0024,0.0024,0.0024,0.0024,0.0024,0.0024,0.0659,0.0024,0.0562
0.0586,0.0024,0.0024,0.0024,0.0049,0.0024,0.0024,0.0928,0.0024,0.0586
0.2368,0.0024,0.0024,0.0024,0.0024,0.0024,0.0122,0.1294,0.0024,0.0513
0.1563,0.0024,0.0024,0.0024,0.0024,0.0024,0.0049,0.1099,0.0024,0.0562
0.1514,0.0024,0.0024,0.0024,0.0024,0.0024,0.0024,0.0757,0.0024,0.0684
0.1221,0.0024,0.0049,0.0024,0.0024,0.0024,0.0024,0.0732,0.0024,0.061
0.1538,0.0024,0.0024,0.0024,0.0024,0.0024,0.0024,0.0879,0.0024,0.0586
0.0928,0.0024,0.0024,0.0024,0.0024,0.0024,0.0024,0.061,0.0024,0.0586
0.0684,0.0024,0.0024,0.0024,0.0024,0.0024,0.0024,0.0537,0.0024,0.0488
0.1538,0.0024,0.0024,0.0024,0.0024,0.0024,0.0024,0.0757,0.0024,0.0659
0.2344,0.0024,0.0024,0.0024,0.0024,0.0024,0.022,0.2222,0.0122,0.0757
0.0977,0.0024,0.0024,0.0024,0.0024,0.0024,0.0195,0.1294,0.0391,0.0562
0.1318,0.0024,0.0024,0.0024,0.0024,0.0024,0.0024,0.0879,0.0024,0.0586
0.166,0.0024,0.0049,0.0024,0.0024,0.0024,0.0146,0.1074,0.022,0.0635
0.1099,0.0024,0.0024,0.0024,0.0024,0.0024,0.0269,0.1318,0.0024,0.0488
0.0903,0.0024,0.0049,0.0024,0.0024,0.0024,0.0244,0.0708,0.0024,0.0513
0.0879,0.0024,0.0024,0.0024,0.0049,0.0024,0.0146,0.1025,0.0024,0.0464
0.0684,0.0024,0.0024,0.0024,0.0024,0.0024,0.022,0.1001,0.0024,0.0464
0.1636,0.0024,0.0024,0.0024,0.0024,0.0024,0.022,0.1025,0.0024,0.0439
0.1074,0.0024,0.0024,0.0024,0.0024,0.0024,0.0342,0.1001,0.0024,0.0464
0.1147,0.0024,0.0024,0.0024,0.0024,0.0024,0.0195,0.1221,0.0024,0.061
0.1489,0.0024,0.0024,0.0024,0.0024,0.0024,0.0073,0.1123,0.0024,0.0537
0.0757,0.0024,0.0024,0.0024,0.0024,0.0024,0.0122,0.0903,0.0024,0.0415
0.0757,0.0024,0.0024,0.0024,0.0024,0.0024,0.0049,0.0757,0.0024,0.0391
0.0366,0.0024,0.0024,0.0024,0.0024,0.0024,0.0122,0.0977,0.0024,0.0488
0.0513,0.0024,0.0024,0.0024,0.0024,0.0024,0.0293,0.1147,0.0024,0.0513
0.0024,0.0024,0.0024,0.0024,0.0122,0.0024,0.0049,0.0513,0.0024,0.0464
0.0195,0.0024,0.0024,0.0024,0.0024,0.0024,0.0342,0.0977,0.0024,0.0757
0.0171,0.0024,0.0024,0.0024,0.0024,0.0024,0.0073,0.0586,0.0024,0.0586
0.0586,0.0024,0.0024,0.0024,0.0024,0.0024,0.0024,0.0537,0.0049,0.0488
0.0244,0.0024,0.0122,0.0024,0.0024,0.0024,0.188,0.1147,0.0293,0.0586
0.0439,0.0024,0.0024,0.0024,0.0024,0.0024,0.1294,0.1392,0.0244,0.0659
0.0024,0.0024,0.0024,0.0024,0.0024,0.0024,0.0146,0.0635,0.0024,0.0513
0.1392,0.0024,0.0024,0.0024,0.0024,0.0024,0.1294,0.2563,0.1001,0.1196
0.2075,0.0024,0.0024,0.0024,0.0024,0.0024,0.0415,0.2026,0.0073,0.061
0.0171,0.0024,0.0024,0.0024,0.0024,0.0024,0.022,0.0586,0.0024,0.0366
0.0342,0.0024,0.0049,0.0024,0.0024,0.0024,0.0024,0.0635,0.0024,0.0391
0.0049,0.0024,0.0024,0.0024,0.0024,0.0024,0.0195,0.0562,0.0024,0.0195
0.0513,0.0024,0.0024,0.0024,0.0024,0.0024,0.0171,0.0586,0.0024,0.0464
0.022,0.0024,0.0024,0.0024,0.0024,0.0024,0.022,0.0635,0.0024,0.0464
0.0098,0.0024,0.0024,0.0024,0.0024,0.0024,0.0122,0.0488,0.0024,0.0342
0.0098,0.0024,0.0024,0.0024,0.0049,0.0024,0.0098,0.0562,0.0024,0.0415
0.0171,0.0024,0.0024,0.0024,0.0024,0.0024,0.0171,0.0854,0.0024,0.0488
0.0024,0.0024,0.0024,0.0024,0.0024,0.0024,0.022,0.0708,0.0024,0.0464
0.0024,0.0024,0.0024,0.0024,0.0024,0.0024,0.0146,0.0464,0.0024,0.0537
0.0024,0.0024,0.0024,0.0024,0.0049,0.0024,0.0024,0.0708,0.0024,0.0464
0.0024,0.0024,0.0024,0.0024,0.0024,0.0024,0.0146,0.0977,0.0024,0.0488
0.0244,0.0024,0.0024,0.0024,0.0024,0.0024,0.0073,0.1392,0.0024,0.0586
0.0269,0.0024,0.0024,0.0024,0.0024,0.0024,0.0122,0.1611,0.0024,0.0635
0.0024,0.0024,0.0024,0.0024,0.0024,0.0024,0.0073,0.0903,0.0024,0.0342
0.0024,0.0024,0.0024,0.0024,0.0024,0.0024,0.0024,0.0952,0.0024,0.0513
0.0024,0.0024,0.0024,0.0049,0.0024,0.0024,0.0024,0.0586,0.0024,0.0415
0.0024,0.0024,0.0024,0.0024,0.0024,0.0024,0.0098,0.1294,0.0024,0.0464
0.0024,0.0024,0.0024,0.0024,0.0024,0.0024,0.0073,0.0854,0.0024,0.0342
0.0024,0.0024,0.0024,0.0024,0.0049,0.0024,0.0024,0.0854,0.0024,0.0513
0.0024,0.0024,0.0024,0.0049,0.0024,0.0024,0.0024,0.0781,0.0024,0.0439
0.0122,0.0024,0.0024,0.0024,0.0098,0.0024,0.0342,0.1099,0.0024,0.0439
0.0049,0.0024,0.0024,0.0024,0.0049,0.0024,0.0049,0.0781,0.0024,0.0464
0.0024,0.0024,0.0024,0.0024,0.0024,0.0024,0.0073,0.0928,0.0024,0.0439
0.0024,0.0024,0.0024,0.0024,0.0024,0.0024,0.0024,0.1025,0.0024,0.061
0.0024,0.0024,0.0049,0.0024,0.0024,0.0024,0.0024,0.061,0.0024,0.0391
0.0024,0.0024,0.0024,0.0024,0.0024,0.0024,0.0024,0.1099,0.0024,0.0513
0.0024,0.0024,0.0024,0.0024,0.0024,0.0024,0.0024,0.1172,0.0024,0.0586
0.0024,0.0024,0.0024,0.0024,0.0024,0.0024,0.0024,0.1099,0.0024,0.0464
0.0049,0.0024,0.0024,0.0024,0.0024,0.0024,0.0049,0.1245,0.0024,0.0391
0.0024,0.0024,0.0024,0.0024,0.0024,0.0024,0.0024,0.1221,0.0024,0.0488
0.0024,0.0024,0.0049,0.0024,0.0024,0.0024,0.0024,0.0903,0.0024,0.0342
0.0024,0.0024,0.0024,0.0024,0.0049,0.0024,0.0024,0.127,0.0024,0.0488
0.0024,0.0024,0.0049,0.0024,0.0024,0.0024,0.0024,0.0977,0.0024,0.0586
0.0146,0.0024,0.0024,0.0024,0.0024,0.0024,0.0024,0.1221,0.0024,0.0513
0.0439,0.0024,0.0024,0.0024,0.0024,0.0024,0.0024,0.0952,0.0024,0.0488
0.0659,0.0024,0.0024,0.0024,0.0024,0.0024,0.0024,0.144,0.0024,0.0513
0.0293,0.0024,0.0024,0.0024,0.0024,0.0024,0.0024,0.0781,0.0024,0.0293
0.022,0.0024,0.0024,0.0024,0.0024,0.0024,0.0024,0.0708,0.0024,0.0317
0.022,0.0024,0.0024,0.0024,0.0024,0.0024,0.0049,0.105,0.0024,0.0439
0.0269,0.0024,0.0024,0.0024,0.0024,0.0024,0.0073,0.0903,0.0024,0.0366
0.0171,0.0024,0.0024,0.0024,0.0049,0.0024,0.0024,0.0806,0.0024,0.0464
0.0146,0.0024,0.0024,0.0024,0.0024,0.0024,0.0024,0.0684,0.0024,0.0488
0.0024,0.0024,0.0024,0.0024,0.0024,0.0024,0.0024,0.1099,0.0024,0.0586
0.0171,0.0024,0.0024,0.0024,0.0049,0.0024,0.0024,0.1343,0.0024,0.0342
0.0098,0.0024,0.0024,0.0024,0.0024,0.0024,0.0024,0.0952,0.0024,0.0488
0.0024,0.0024,0.0024,0.0024,0.0024,0.0024,0.0024,0.1221,0.0024,0.0635
0.0024,0.0024,0.0049,0.0024,0.0024,0.0024,0.0024,0.1172,0.0024,0.0439
0.0073,0.0024,0.0024,0.0024,0.0024,0.0024,0.0024,0.0977,0.0024,0.0415
0.0049,0.0024,0.0049,0.0024,0.0024,0.0024,0.0024,0.0977,0.0024,0.0342
0.0854,0.0024,0.0024,0.0024,0.0024,0.0024,0.0195,0.166,0.0684,0.061
0.0024,0.0024,0.0024,0.0024,0.0024,0.0024,0.0024,0.061,0.0098,0.0562
0.0024,0.0024,0.0024,0.0024,0.0024,0.0024,0.0024,0.0391,0.0122,0.0562
0.0024,0.0024,0.0024,0.0024,0.0024,0.0024,0.0024,0.061,0.0049,0.0391
0.0024,0.0024,0.0024,0.0024,0.0049,0.0024,0.0024,0.0415,0.0024,0.0439
0.0513,0.0024,0.0024,0.0024,0.0024,0.0073,0.0854,0.1855,0.1465,0.7373
0.0024,0.0024,0.0024,0.0024,0.0024,0.0024,0.0024,0.061,0.0171,0.0537
0.0024,0.0024,0.0024,0.0024,0.0024,0.0024,0.0049,0.0635,0.0244,0.0488
0.0024,0.0024,0.0024,0.0024,0.0024,0.0024,0.0024,0.0488,0.0171,0.0488
0.0024,0.0024,0.0024,0.0024,0.0024,0.0024,0.0024,0.0903,0.022,0.0464
0.0024,0.0024,0.0024,0.0024,0.0024,0.0024,0.0024,0.0415,0.0195,0.0513
0.0024,0.0024,0.0024,0.0024,0.0024,0.0024,0.0049,0.0415,0.0195,0.0415
0.0024,0.0024,0.0024,0.0024,0.0024,0.0024,0.0024,0.0586,0.0073,0.0439
0.0024,0.0024,0.0024,0.0024,0.0024,0.0024,0.0024,0.0439,0.0146,0.0439
0.0024,0.0024,0.0024,0.0024,0.0024,0.0024,0.0024,0.0659,0.0146,0.0439
0.0024,0.0024,0.0024,0.0024,0.0024,0.0024,0.0073,0.0854,0.0073,0.0488
0.0024,0.0024,0.0024,0.0024,0.0024,0.0024,0.0073,0.0806,0.0073,0.0488
0.0024,0.0024,0.0024,0.0024,0.0024,0.0024,0.0049,0.0757,0.0146,0.0317
0.0024,0.0024,0.0024,0.0024,0.0024,0.0024,0.0049,0.0439,0.0049,0.0562
0.0049,0.0024,0.0024,0.0024,0.0024,0.0024,0.0024,0.0537,0.0024,0.0415
0.1587,0.0024,0.0024,0.0024,0.0024,0.0024,0.0146,0.1538,0.0977,0.0488
0.2417,0.0024,0.0024,0.0024,0.0024,0.0024,0.0342,0.1904,0.1099,0.0464
0.0098,0.0024,0.0024,0.0024,0.0024,0.0024,0.0024,0.0757,0.0903,0.0415
0.0024,0.0024,0.0024,0.0024,0.0024,0.0024,0.0024,0.0928,0.0708,0.0464
0.0049,0.0024,0.0024,0.0024,0.0049,0.0024,0.0049,0.0781,0.0708,0.0562
0.0024,0.0024,0.0024,0.0024,0.0024,0.0024,0.0122,0.0781,0.0659,0.0464
0.0684,0.0024,0.0024,0.0024,0.0024,0.0024,0.0073,0.1172,0.083,0.0806
0.0024,0.0024,0.0024,0.0024,0.0024,0.0024,0.0049,0.0977,0.0806,0.0537
0.0049,0.0024,0.0024,0.0024,0.0024,0.0024,0.0269,0.105,0.0781,0.0513
0.0171,0.0024,0.0024,0.0024,0.0024,0.0024,0.0293,0.127,0.0684,0.0464
0.0098,0.0024,0.0024,0.0024,0.0024,0.0024,0.0269,0.1196,0.083,0.0415
0.0049,0.0024,0.0024,0.0024,0.0024,0.0024,0.0171,0.105,0.0903,0.0391
0.0171,0.0024,0.0024,0.0024,0.0049,0.0024,0.0439,0.1318,0.0757,0.0488
0.3198,0.0024,0.0024,0.0024,0.0024,0.0024,0.0317,0.2441,0.1245,0.0391
0.0342,0.0024,0.0024,0.0024,0.0024,0.0024,0.0024,0.0757,0.0879,0.0488
0.0244,0.0024,0.0024,0.0024,0.0024,0.0024,0.0098,0.0854,0.0903,0.0439
0.0049,0.0024,0.0024,0.0024,0.0024,0.0024,0.0098,0.0952,0.0928,0.0391
0.0024,0.0024,0.0024,0.0024,0.0024,0.0024,0.0049,0.0903,0.0757,0.0537
0.0024,0.0024,0.0024,0.0024,0.0024,0.0024,0.0024,0.0757,0.0854,0.0366
0.0024,0.0024,0.0024,0.0024,0.0024,0.0024,0.0195,0.0854,0.0806,0.0415
0.0171,0.0024,0.0024,0.0024,0.0024,0.0024,0.0171,0.1123,0.0977,0.0342
0.0024,0.0024,0.0024,0.0024,0.0024,0.0024,0.0024,0.0537,0.0977,0.0537
0.0049,0.0024,0.0024,0.0024,0.0024,0.0024,0.0073,0.0757,0.0879,0.0488
0.0024,0.0024,0.0024,0.0024,0.0024,0.0024,0.0073,0.061,0.0854,0.0342
0.0024,0.0024,0.0024,0.0024,0.0024,0.0024,0.0024,0.0537,0.0806,0.0586
0.0098,0.0024,0.0024,0.0024,0.0024,0.0024,0.0195,0.1001,0.0928,0.0488
0.0024,0.0024,0.0024,0.0024,0.0024,0.0024,0.0073,0.0879,0.0903,0.0562
0.1392,0.0024,0.0024,0.0024,0.0024,0.0024,0.0366,0.1807,0.4175,0.0684
0.0122,0.0024,0.0024,0.0024,0.0024,0.0024,0.022,0.1221,0.1611,0.0537
0.0049,0.0024,0.0024,0.0024,0.0024,0.0024,0.022,0.1196,0.0928,0.0391
0.0024,0.0024,0.0024,0.0024,0.0024,0.0024,0.0195,0.1099,0.0903,0.0562
0.0049,0.0024,0.0049,0.0024,0.0024,0.0024,0.0195,0.1074,0.0928,0.0439
0.0098,0.0024,0.0024,0.0049,0.0024,0.0024,0.0073,0.1001,0.0977,0.0464
0.0049,0.0024,0.0024,0.0024,0.0024,0.0024,0.0171,0.0757,0.083,0.0342
0.0024,0.0024,0.0024,0.0024,0.0024,0.0024,0.0146,0.1025,0.0928,0.0464
0.0024,0.0024,0.0024,0.0024,0.0024,0.0024,0.0073,0.0854,0.0977,0.0366
0.0073,0.0024,0.0024,0.0024,0.0024,0.0024,0.0146,0.1123,0.1099,0.0488
0.0098,0.0024,0.0024,0.0024,0.0024,0.0024,0.0171,0.1245,0.0977,0.0244
0.0024,0.0024,0.0024,0.0024,0.0024,0.0024,0.0073,0.1172,0.0952,0.0439
0.0024,0.0024,0.0024,0.0024,0.0024,0.0024,0.0195,0.1099,0.0781,0.0391
0.127,0.0024,0.0024,0.0024,0.0024,0.0024,0.0415,0.2173,0.332,0.0684
0.0049,0.0024,0.0024,0.0024,0.0024,0.0024,0.0171,0.1416,0.1025,0.0488
0.0024,0.0024,0.0024,0.0024,0.0024,0.0024,0.0146,0.1001,0.1074,0.0464
0.0098,0.0024,0.0024,0.0024,0.0024,0.0024,0.0171,0.1416,0.0952,0.0488
0.0024,0.0024,0.0024,0.0024,0.0024,0.0024,0.0098,0.0879,0.1172,0.0391
0.0146,0.0024,0.0024,0.0024,0.0049,0.0024,0.0317,0.0757,0.0977,0.0317
0.0903,0.0024,0.0024,0.0024,0.0024,0.0024,0.0439,0.0952,0.1489,0.0488
0.0024,0.0024,0.0024,0.0024,0.0024,0.0024,0.022,0.1196,0.1489,0.0513
0.0024,0.0024,0.0024,0.0024,0.0024,0.0024,0.0391,0.0732,0.1392,0.0513
0.0317,0.0024,0.0024,0.0024,0.0024,0.0024,0.0488,0.1367,0.1392,0.0464
0.0049,0.0024,0.0024,0.0024,0.0024,0.0024,0.0317,0.0854,0.1563,0.0586
0.0269,0.0024,0.0024,0.0024,0.0024,0.0024,0.0342,0.1318,0.1514,0.0537
0.1514,0.0024,0.0024,0.0024,0.0024,0.0024,0.0366,0.1514,0.127,0.0439
0.0806,0.0024,0.0024,0.0024,0.0024,0.0024,0.0269,0.1465,0.2051,0.0586
0.0562,0.0024,0.0024,0.0024,0.0024,0.0024,0.0024,0.105,0.1172,0.0439
0.0024,0.0024,0.0024,0.0024,0.0024,0.0024,0.0342,0.0854,0.1343,0.0439
0.0024,0.0024,0.0024,0.0024,0.0024,0.0024,0.061,0.127,0.3076,0.0513
0.0293,0.0024,0.0024,0.0024,0.0024,0.0024,0.0488,0.1196,0.0928,0.0635
0.0293,0.0024,0.0024,0.0024,0.0024,0.0024,0.0488,0.1221,0.0903,0.0635
0.0171,0.0024,0.0024,0.0024,0.0024,0.0024,0.0024,0.0732,0.0977,0.0586
0.0098,0.0024,0.0024,0.0024,0.0024,0.0024,0.0024,0.0757,0.0757,0.0342
0.0024,0.0024,0.0024,0.0024,0.0049,0.0024,0.0317,0.0488,0.105,0.0464
0.0024,0.0024,0.0024,0.0024,0.0024,0.0024,0.0244,0.0684,0.0708,0.0342
0.0024,0.0024,0.0024,0.0024,0.0024,0.0024,0.0415,0.0806,0.0732,0.0415
0.0024,0.0024,0.0049,0.0024,0.0024,0.0024,0.0293,0.0439,0.061,0.0439
0.0024,0.0024,0.0024,0.0024,0.0024,0.0024,0.0439,0.0293,0.061,0.0488
0.0024,0.0024,0.0024,0.0024,0.0024,0.0024,0.0317,0.0415,0.0757,0.0537
0.0024,0.0024,0.0024,0.0024,0.022,0.0024,0.0488,0.0684,0.1001,0.0244
0.0024,0.0024,0.0024,0.0024,0.0342,0.0024,0.0537,0.0635,0.1099,0.0464
0.1831,0.0024,0.0024,0.0024,0.0024,0.0024,0.0317,0.1782,0.1172,0.0366
0.1416,0.0024,0.0024,0.0024,0.0024,0.0024,0.0073,0.1001,0.1147,0.0586
0.022,0.0024,0.0024,0.0024,0.0024,0.0024,0.0024,0.0952,0.1123,0.0537
0.0049,0.0024,0.0024,0.0024,0.0024,0.0024,0.0024,0.0537,0.1001,0.0488
0.0024,0.0024,0.0024,0.0024,0.0024,0.0024,0.0024,0.0293,0.1733,0.0488
0.0049,0.0024,0.0024,0.0024,0.0024,0.0024,0.0024,0.0732,0.1025,0.0488
0.0024,0.0024,0.0024,0.0024,0.0024,0.0024,0.0024,0.0562,0.0977,0.0415
0.0098,0.0024,0.0024,0.0024,0.0024,0.0024,0.0293,0.1221,0.1367,0.0342
0.0244,0.0024,0.0024,0.0024,0.0024,0.0024,0.0024,0.0903,0.1172,0.0537
0.0171,0.0024,0.0024,0.0024,0.0024,0.0024,0.0146,0.1099,0.1196,0.0537
0.0098,0.0024,0.0024,0.0024,0.0024,0.0024,0.0195,0.1343,0.1221,0.0488
0.0146,0.0024,0.0024,0.0024,0.0024,0.0024,0.0073,0.1099,0.1294,0.0513
0.0122,0.0024,0.0024,0.0024,0.0024,0.0024,0.0049,0.105,0.127,0.0488
0.0098,0.0024,0.0024,0.0024,0.0024,0.0024,0.0146,0.1245,0.1123,0.061
0.0073,0.0024,0.0049,0.0024,0.0024,0.0024,0.0073,0.1196,0.1416,0.0366
0.0122,0.0024,0.0024,0.0024,0.0024,0.0024,0.0024,0.0854,0.1099,0.0342
0.0122,0.0024,0.0024,0.0049,0.0024,0.0024,0.0146,0.0977,0.1367,0.0317
0.0024,0.0024,0.0024,0.0024,0.0024,0.0024,0.0195,0.1147,0.105,0.0391
0.0146,0.0024,0.0024,0.0024,0.0024,0.0024,0.0098,0.0903,0.1025,0.0464
0.0317,0.0024,0.0024,0.0024,0.0024,0.0024,0.0244,0.1147,0.0879,0.0415
0.0244,0.0024,0.0024,0.0024,0.0024,0.0024,0.0122,0.0952,0.0952,0.0439
0.0879,0.0024,0.0024,0.0024,0.0024,0.0024,0.0171,0.105,0.1074,0.0439
0.083,0.0024,0.0024,0.0024,0.0024,0.0024,0.0122,0.0977,0.1025,0.0464
0.0244,0.0024,0.0024,0.0024,0.0024,0.0024,0.0146,0.1099,0.083,0.0586
0.0488,0.0024,0.0024,0.0024,0.0024,0.0024,0.0098,0.1025,0.1074,0.0415
0.0732,0.0024,0.0024,0.0024,0.0024,0.0024,0.0122,0.1343,0.0879,0.0635
0.1636,0.0024,0.0024,0.0024,0.0024,0.0024,0.0098,0.1733,0.1123,0.0488
0.0586,0.0024,0.0024,0.0024,0.0024,0.0024,0.0146,0.1294,0.0928,0.0391
0.0562,0.0024,0.0024,0.0024,0.0024,0.0024,0.0024,0.1196,0.0977,0.0366
0.0488,0.0024,0.0024,0.0024,0.0024,0.0024,0.0464,0.127,0.1001,0.0342
0.0464,0.0024,0.0024,0.0024,0.0024,0.0024,0.0098,0.1025,0.1001,0.0464
0.0488,0.0024,0.0049,0.0024,0.0024,0.0024,0.0049,0.1025,0.105,0.0464
0.0562,0.0024,0.0024,0.0024,0.0024,0.0024,0.0171,0.1245,0.1099,0.0342
0.0439,0.0024,0.0024,0.0024,0.0049,0.0024,0.0171,0.105,0.0879,0.0464
0.0073,0.0024,0.0464,0.0024,0.0024,0.0024,0.0122,0.0806,0.0928,0.0391
0.0317,0.0024,0.0024,0.0024,0.0024,0.0024,0.0122,0.1221,0.1001,0.0537
0.0024,0.0024,0.0024,0.0024,0.0024,0.0024,0.0024,0.0708,0.1074,0.0391
0.0415,0.0024,0.0024,0.0024,0.0024,0.0024,0.0269,0.1245,0.1074,0.0537
0.0073,0.0024,0.0024,0.0024,0.0024,0.0024,0.0024,0.1025,0.1196,0.0537
0.0024,0.0024,0.0024,0.0024,0.0024,0.0024,0.0024,0.0854,0.1123,0.0366
0.0098,0.0024,0.0024,0.0024,0.0024,0.0024,0.0024,0.0269,0.1099,0.0439
0.0049,0.0024,0.0024,0.0024,0.0024,0.0024,0.0122,0.1172,0.1074,0.0513
0.0366,0.0024,0.0024,0.0024,0.0024,0.0024,0.0024,0.1099,0.0928,0.0488
0.0391,0.0024,0.0024,0.0024,0.0024,0.0024,0.0024,0.1074,0.0879,0.0488
0.0269,0.0024,0.0024,0.0024,0.0024,0.0024,0.0024,0.0952,0.0732,0.0464
0.0024,0.0024,0.0049,0.0024,0.0024,0.0024,0.0024,0.0562,0.0854,0.0537
0.1196,0.0024,0.0024,0.0024,0.0024,0.0024,0.0708,0.2368,0.2637,0.0879
0.1147,0.0024,0.0024,0.0024,0.0024,0.0024,0.0342,0.1611,0.1489,0.0635
0.0366,0.0024,0.0024,0.0024,0.0024,0.0024,0.0244,0.1318,0.1123,0.0415
0.0024,0.0024,0.0024,0.0024,0.0024,0.0024,0.0024,0.0854,0.1147,0.0439
0.0098,0.0024,0.0024,0.0024,0.0024,0.0024,0.0293,0.1343,0.0903,0.0366
0.1294,0.0024,0.0024,0.0024,0.0024,0.0024,0.0024,0.1416,0.1196,0.0391
0.0928,0.0024,0.0024,0.0024,0.0024,0.0024,0.0122,0.1343,0.1245,0.0513
0.1245,0.0024,0.0024,0.0024,0.0024,0.0024,0.0244,0.1563,0.1001,0.0586
0.0488,0.0024,0.0024,0.0024,0.0024,0.0024,0.0293,0.1221,0.1465,0.0537
0.0122,0.0024,0.0024,0.0024,0.0024,0.0024,0.0244,0.1392,0.1123,0.0439
0.0342,0.0024,0.0024,0.0024,0.0024,0.0024,0.0464,0.1367,0.0879,0.0513
0.0342,0.0024,0.0024,0.0024,0.0024,0.0024,0.0464,0.1392,0.083,0.0513
0.0391,0.0024,0.0024,0.0024,0.0024,0.0024,0.0317,0.1172,0.0928,0.0537
0.0342,0.0024,0.0024,0.0024,0.0024,0.0024,0.0122,0.1294,0.1025,0.0513
0.0122,0.0024,0.0024,0.0024,0.0024,0.0024,0.0049,0.1001,0.0903,0.0537
0.0024,0.0024,0.0024,0.0024,0.0024,0.0024,0.0098,0.0659,0.0928,0.0513
0.0073,0.0024,0.0024,0.0024,0.0024,0.0024,0.0024,0.0854,0.0952,0.0537
0.0269,0.0024,0.0024,0.0024,0.0024,0.0024,0.0024,0.0903,0.1123,0.0293
0.0024,0.0024,0.0024,0.0024,0.0171,0.0024,0.0024,0.0391,0.0903,0.0391
0.0439,0.0024,0.0024,0.0024,0.0024,0.0024,0.0244,0.1465,0.1465,0.0562
0.0293,0.0024,0.0024,0.0024,0.0024,0.0024,0.0366,0.1318,0.1025,0.0342
0.0171,0.0024,0.0024,0.0024,0.0024,0.0024,0.0391,0.1392,0.127,0.0586
0.0049,0.0024,0.0024,0.0024,0.0024,0.0024,0.0317,0.0952,0.1343,0.0464
0.0098,0.0024,0.0024,0.0024,0.0024,0.0024,0.0244,0.1196,0.144,0.0439
0.0098,0.0024,0.0024,0.0024,0.0024,0.0024,0.022,0.1172,0.1001,0.0342
